0.01206021595176814	0.007171891609228833	-0.004912304839152804	-0.01035152924935901
0.009734345422447041	0.002081273151097984	-0.005152215102136287	-0.0150850201403643
0.009581441493218764	0.001323077399288526	3.150569623372912e-05	-0.01410549972909208
0.008354896755311763	0.006495654361515694	0.000986732442451613	-0.01183838566756205
0.005473007884843212	0.002168859365432893	0.004219750160334182	-0.009028983495306588
-0.01030294236196023	-0.0003623194239806647	0.00574133640919546	-0.0075749658667787
-0.01406676538441705	-0.003367627317938279	0.009105766229030973	-0.009566507110306828
-0.001115117117994906	-0.005490843928255774	0.003506363810749979	-0.006468812757262046
0.003648511521770379	-0.01134253562442461	0.004146683941911648	-0.0009677279046176678
0.003474511464937727	-0.008372255689061497	0.004514759273030432	-0.002093754647016541
-0.0004939913898726676	-0.01004662281452993	-0.0005283759821001438	0.001178849250328586
0.001792877700512736	-0.008798145701514064	0.0006013484017371309	0.005103232338979369
0.002131996379123722	-0.009719022288954956	-0.00343637104319503	-0.002932384836997007
-0.003039542317532697	-0.01127571058408108	-0.007068835013502021	0.006965169581558801
-0.01460239031170768	-0.02145324626532713	-0.002887437977107669	0.005906108876287067
-0.02404876446254418	-0.02610563624943533	-0.002042192366500592	0.004161793091454271
-0.01890118199076599	-0.02359175950535137	-0.002843049447671493	0.01108976433879469
-0.01002591416022755	-0.01946853073166519	-0.007680023875582692	0.008260781413261349
-0.001885154988885157	-0.009880169499512642	-0.003589182389805784	0.002358734719687098
-0.0100861317409546	-0.002545342772663297	-0.00204547941064077	-0.006075608008612103
-0.00832663696575865	0.01284330654317964	0.0002731710141148804	-0.001753106969439822
-8.578400091975336e-05	0.02128891151894439	0.003151520996922384	-0.01861767791438198
0.006845462441091885	0.03817246486476896	0.001833439857151428	-0.02073806104781574
0.006878425571365373	0.03651085975694785	-0.004112471736507338	-0.01692722363815134
0.0005149446620788469	0.01544043110023118	-0.003122729109993503	-0.004616625705119907
0.0005247860146232726	0.007353723820348252	0.001830700914035217	0.006332076351300155
0.006409949371224091	0.003707382199721931	-0.003424932562182507	0.01015870327723136
0.01288396075504753	0.003934765508554207	-0.006986855346259564	0.005213613975079481
0.01985790567738928	0.001926628130240093	-0.002147844083260562	0.008216026079616098
0.007429339810335001	-0.0005650441664041022	-0.005777051436275773	0.01008658929100129
-0.001159461861140507	0.003825797730562269	-0.0008335461879881166	0.006668725730042578
0.009799061245241887	-0.0002803076298004554	-0.004446916583278337	0.009995405943768805
0.008462319976958609	0.0007348578076828191	4.619247049839744e-06	0.02157097331005818
0.012414663054635	0.002475686598352973	0.001465415007401182	0.01929008746412007
0.01294497628039046	-0.000903585865158462	0.003366315548209395	0.01363732156237661
-0.009422564008196424	-0.00735750501706641	-0.00808693712010199	0.0093105547943391
-0.009054107594357406	-0.009055697501351885	-0.01098051009244955	-0.0003854941443716049
-0.005309297081201334	-0.001514117332937165	-0.007675236886022526	-0.002209676643601493
-0.006554151060163296	-2.056189259755576e-05	-0.003799393031989264	-0.008255188656351855
-0.007682967179018856	-0.001273290732001235	-0.00197815129965159	-0.004459959384007101
-0.009961656932525646	-0.006135626786518567	-0.002081982638879687	-4.422804557487059e-09
-0.004709153310407324	-0.008905213839181095	0.0004233872430767333	0.003305324391338495
-0.002210049730115316	-0.009726185968310114	0.006267234012317736	0.01077967609728721
0.00482176237414452	-0.007828957227187417	0.004495242533099496	0.02123020910077027
0.01051232799161796	-0.009437313314441916	-0.001549627863207739	0.009743657306417948
0.005996238209708196	-0.007943818303677266	-0.00123062857355095	1.688435483953167e-06
0.01108234412463867	-0.005540120046944607	-0.002218909336115796	-0.001259173479597584
0.008773015074445237	-0.006520890598482675	0.000702150266644529	-0.0004127963962250229
0.009577463997674797	-0.01543682925140806	-0.0007725748908117187	-5.197637111637181e-06
0.01400972097617035	-0.007489985538687359	0.0003905718662421316	0.00219228098973519
0.01402751872247009	-0.001540775085860071	0.004861752084845572	3.642340946165767e-06
-0.009950334421614788	0.003227930907873979	0.007880501771636603	-0.001260212297560599
-0.05876737447838638	0.003638389637926951	0.00957133781877381	0.001176573711640892
-0.04943326913538971	0.0006039326883386204	0.009857654337734409	-0.0003127536308489803
-0.0261130941965492	0.001926470791138827	0.003553119166481082	-0.002798373456056111
-0.02198318470174728	0.01071258638277256	0.005960597649806594	-0.004366419192129638
-0.02135906811284839	0.009943178590494419	0.0008618066054396636	-0.008041311789247472
-0.009968105611532059	0.007869421446653532	0.006985016612953657	-0.002168945931551736
0.001598558755107142	0.00818014279747644	0.003981077920848954	0.0008584801160507179
-0.0008775612657170929	0.008402863514740242	0.004928219001148332	0.0006965244472436733
-0.001947242785754455	0.004357850374813072	0.003283476734761013	0.000566316707266307
0.001004458513266734	0.00386318285228615	-0.001391477920516452	-0.005003818544021121
0.000346581175429894	0.002444548734382672	0.002698882162057961	-0.007939826176432366
0.003177093904335189	0.0006229734026660605	-0.002760163745170028	-0.01318386741420354
0.004015111036261715	0.004562915788543303	-0.001882571745824947	-0.01287048948441382
0.001759893722771627	0.001421465412103818	-0.005790475140492656	-0.004267216551414505
0.002142003976553604	-0.0005548410668065596	-0.002542384705795973	-0.005302942576729786
0.00421482865964	0.0003917795512181536	-0.0008840930315777222	-0.005178905505344156
0.01055076455124207	-0.002923256060932954	-0.0001550350842678433	-0.0043103738398551
0.01143588288893897	-0.007849368086695648	0.002525989912216431	-0.001612113972403157
0.01615803884324437	-0.007971541554443948	0.003672939374444275	-0.001899134966059829
0.01674029693345382	0.0004323767646961297	0.003968759390710321	-0.001463744269502932
0.01453474576434425	0.004651878085242411	0.005392289944630526	-0.002834611250640503
0.01600196037203689	0.001930718367152347	0.007439809280903263	-0.003318001628481804
0.01112722898529625	-0.001721841399376925	0.005580061232607009	-0.001037714185213085
0.008717930857119081	-0.0001593969368459369	0.002826548003578858	-0.005413326143593968
-0.006262829676465755	0.003925034994666883	0.001960038918731821	-0.00565072432235957
-0.02636923369790753	0.0003024589745802838	-0.003793906623644696	0.004686528705509637
-0.02546366352176227	0.00334232366515769	0.001419483941758059	0.003861425220937725
-0.01931041328872983	-0.001990893732685893	-0.001157578646836866	0.008210474974820924
-0.02017563009842143	-0.004423257073094392	-0.007898489098966441	0.006271304581692751
-0.01333612508461199	-0.003781816890160093	-0.009173308326664636	0.005760007986723275
-0.007144644268527061	-0.00849123188613553	-0.007461595145745189	0.005016378149727516
0.002261034754504016	-0.009589304238999442	-0.00637656875704579	-0.001583740763718382
0.00836131888667699	-0.007358179714661405	-0.0001670859501123086	-0.002735613630780868
0.01311950679359274	0.001501304354392546	0.004894818609940852	-0.0157941295664334
0.01223693674812976	0.008792844324960553	0.00185357416811331	-0.01599853845457538
0.0113449051261236	0.008458765914339606	0.005993812722918778	-0.0106391342593959
0.0102883104560893	0.006300809073453824	0.002515199667928183	-0.002907466001109919
0.006224264237238847	0.002438387495297322	0.0003664014153737918	0.0003860942231506736
0.003063065329396025	-0.01349598588959351	0.002086938998513897	-0.003479323484174149
0.007758385855901822	-0.01459076013136117	-0.0006772378901860342	0.001850810735773871
-0.00073812607720331	-0.02228221967954352	-0.0007908140810855961	-0.0002927371357883764
-0.01113799654609893	-0.02297438629796355	-0.00221119623890537	-0.0007957756674991064
-0.004474918191566891	-0.01416249304745369	-0.007883161581918423	0.003465268631418568
0.0002720771581998154	-0.0007509962865692316	-0.009648357822576725	0.005826069925637682
0.006827936625572678	0.003138254572396599	-0.01121463336569162	-0.002111261685725907
0.00648857996434913	0.007052214140800034	-0.007144988726566746	-0.001405779276165896
0.007767959730985279	0.02894277831828636	-0.008766088977126078	-0.002367797941952255
0.01163538405515446	0.03323143668463162	-0.008983875945630299	0.003915713825654523
0.01961423020119146	0.02109479797923847	-0.008041767320953967	0.003222673829610121
0.02163735945551507	0.01159216634976045	-0.00383282040338564	0.004081026097866682
0.02106872314805841	0.004075065674702412	-0.0009501773795310301	0.003660316109304864
0.01410069099674779	0.003792821923997451	0.004159003963382978	7.731773952202156e-06
0.01373554328379108	0.0004776737881301547	0.005239309638181989	-0.0002431375516588918
0.008776408952507777	-0.004022304230652651	0.01037563190245939	0.001206346097635585
0.005261469460872243	-0.009748499637017865	0.001936075901545708	0.004745331271001892
-0.002976424087276054	-0.007608638047174399	0.0004765161449471945	0.008428531050054757
-0.00745460295584248	-0.006042677953880296	-0.001338265896352936	0.008679853417531014
-0.01799779687324008	-0.01659767415263483	-0.003436313900153389	0.00284100485248609
-0.04189231853161121	-0.01296237519601407	0.005294227860613656	0.01050332705319395
-0.02435036686744608	-0.01022462144345247	0.004905240110677491	0.01649162054793743
-0.01881764116771155	-0.01277884387129748	-0.002252811061138357	-0.002029122303911093
-0.01787711673326176	-0.01036642698519582	-0.0004543099897601646	-0.008248459692396223
-0.01356730175743871	-0.0008157660755255141	-0.001508128818345229	-0.005964220211522478
-0.002127452924152767	0.01139487762373367	-0.002874706134790008	-0.00347347901328017
0.003510138196556519	0.01088313954899064	0.001143305631668461	-0.003241310066185981
0.006245572564710921	0.01326144918562468	-0.001055573580813196	0.003552756834357297
0.01016896740723133	0.009949883428537913	0.002175600003003218	0.006450718921350213
0.01317859457623362	0.01746951394912657	-0.0003030097779930809	-0.003034407135463179
0.0121603512246174	0.01396510761260255	0.0006622034139484613	0.001003295054715421
0.01050727030729184	0.01391424525794665	0.003417493460023597	0.003428876111603602
0.007940387595717047	0.0190423936372572	0.008473858337795853	-0.001312676245501157
0.0125556930698896	0.02363769567084567	0.004728897615294636	0.003179832941666206
0.007908942335789598	0.0233494961630931	4.301440837810238e-06	0.00174436075957177
-0.003762494298056702	0.01277858282402424	-0.0005813837583989597	-0.005560047740910531
-0.00631596420855251	0.0007054149272498267	-0.002817567952020359	-0.00748165193636201
0.01234461914566422	-0.003484802995033724	0.001670312582086074	-0.008333301694829999
0.01433482771042535	-0.004163011125132395	0.003905714865234718	-0.01096752627768549
0.006345888827698609	-0.003063302060038102	0.002185009394545349	-0.004121192231970122
-0.0008379461394309353	-0.001412735644778235	0.001372373037531034	0.00853829761391609
0.00315745209493959	-0.00136950433714874	-0.001599949348879922	0.007255290285450412
-0.001077903996477071	-0.00218783853210376	-0.00191944340878714	0.00291806388670964
0.001688483098755044	-0.004411809036709474	0.0001051734912940799	0.00453675650217835
-0.01245226548679483	-0.007198327208710656	-0.002365386209339869	0.006839449561512065
-0.02942342105177921	-0.01032875526334858	-0.001166555345336859	0.0009046666601485971
-0.03976133968586611	-0.01104927703459319	0.001174245789492704	-0.004957169285798808
-0.02605606151540509	-0.01342821983578314	-0.0002381479122690729	-0.004348179563232026
-0.00322531095957162	-0.0149382580862161	0.002448595266682044	-0.004652643904153509
0.0003453970934286466	-0.01535824571981811	0.004362586168952715	-0.001687708708306743
0.01734374321223307	-0.00798544772441767	0.00141659885943405	0.006876625787192822
0.0243013614259367	-0.004321359348511135	0.002032637561341714	0.009398483488438737
0.01854650935110365	-0.006828635246495582	0.002209805806929567	0.00546608472018864
0.004505498261183484	-0.001357068350946675	0.006218661015196666	0.007001570725646614
-0.01194820287908387	-0.001938349606529608	0.002063913628466179	0.00409684177280861
-0.02503797043456367	0.001577948920839752	0.002883857929082765	0.000458080146057222
-0.01770288772154533	0.0004680508925788716	0.0009084076506994741	-0.00673277037655683
-0.005255686863093449	0.0006341735146245321	-0.0007174550238715212	-0.00840329060119647
-0.004503025833823706	0.007508829265312987	-0.000153585127646605	-0.01986026866162625
0.004369595173817166	0.00126397455300625	-0.005290508362132937	-0.01861222967669215
0.0004664535173450621	0.002546156149298717	0.001986020864371918	-0.0119323066327866
0.007741249506271843	0.006724619928080687	-0.003815729108359005	-0.01042351805249525
0.01079745771137094	0.002741193853008196	0.001282805457061841	-0.003569541908305643
0.00691759886338528	0.004605407256943407	0.0002577370343373935	0.0006413585637224837
0.009969424672498773	0.001445788249141109	-0.0003424009617654393	0.001529618059867345
0.002487658137815955	0.001107873996770312	0.00117351648972681	0.006750637770063366
0.002740442396484461	-0.003603576527239016	-0.0002217515244332589	0.01048609660982319
-4.981708624813622e-05	-0.005618039337111607	0.004349099543197724	0.007933250308915327
-0.003954084547640112	-0.004207756879307019	0.00267220190080476	0.006151896734237768
0.006237699680375717	-0.001405629978542077	0.002068182400837674	0.001862015933776157
0.008353219480290724	-0.002142780742376796	0.002423830842742465	0.004110954354382313
0.007776282365440498	-0.007137342238307307	0.001548086852241271	0.004340891990600834
0.0115020930244298	-0.008867861283302816	0.0004559284802512007	0.0003982927182130772
0.01569041134727874	-0.006411365731569823	0.001122872511795161	0.0007897452887879601
0.007641724999752142	-0.002531070566766797	-0.005274739031863805	-0.0004238370301606653
0.002661092210208068	0.0008895933392056477	-0.006396679047216824	0.0004162889578962425
0.004040085310266167	0.01002523108538179	-0.009930808666561607	0.001613669731656015
-0.002655371783851903	0.008380813449157117	-0.006210610270817103	0.001898636659253484
-0.03389844290175716	0.007445748396121566	-0.005072577761795992	0.002705389098369983
-0.03232383297003961	0.008141018580847896	-0.002472685444674132	0.003201605882651237
-0.006634928329863661	0.008958105389517719	-0.002237148403047466	0.00306898267687233
-0.005955183825594151	0.007134378781360686	-0.0009474878389636891	0.002861917761699472
-0.02638671944339774	0.003189894582919613	0.0003161557954071856	0.01729687314057731
-0.01538920253182169	-0.007006502726010462	0.0001056243709646939	0.01676914517413043
0.0009843310147148354	-0.01509303441551083	-0.006221675112143084	-0.00462106291563929
-0.006393979223834108	-0.02365820771983181	-0.002546184618427851	-0.00411526519415252
-0.00685027297407896	-0.03537267468059267	0.0002656436010928689	-0.003041503097608006
-0.01159459697282529	-0.03175935186815362	0.0004087693373007052	-0.005235507713777735
-0.001312340354091391	-0.02452248072368346	0.001849463898454485	-0.002093562209663559
0.006324044736034682	-0.02440942713342406	0.0009695822315532803	-0.00243903998258443
0.007051312894478841	-0.0172870469261622	0.001073962742068159	-0.00695889207076373
0.009417185013201646	-0.01362645067300422	-0.002081911086003026	0.0004920039432789201
0.006375899243687293	-0.008074938737592668	0.0003644936543415052	-0.003470037162526867
0.005022077936565834	0.01275925279712955	-0.001458131832966173	0.00160424086791428
0.001997864903905387	0.03350968120102071	-0.003052168974919203	-0.002485186248975936
0.001301338791243402	0.0249039141529639	-0.001180361921899208	-0.0003567314175766512
0.002994592336374924	0.01302039991062127	0.001372236902325312	0.005590968121285728
-0.001298913448753618	0.01166314724409604	0.001902955980244144	0.008092859640437326
-0.003132554778354141	0.005817225716439946	0.001956198492229005	0.008463208855161636
-0.001885415483176445	0.006751479798727629	0.002130784114239936	0.003512012062285109
0.00324789111296827	0.006017753852142779	0.003762141829164798	-0.0002584335152201448
-0.0003299911812491236	0.002259367603192135	-0.001414069141146401	-0.004552202555271571
0.00414436440920139	-0.0007239373030400279	-0.002693059920207976	-0.006784012606148638
0.006033730769830631	0.004573020287781211	0.002471935536079646	-0.008689774381964699
0.008834587001800915	0.002622189786714321	0.004627646416635022	-0.006894716632085521
0.01059873652007668	0.00792666952261614	-0.0002497650045189711	-0.005386010266554962
0.008400696426960128	0.01194532227036964	0.0001320548297432762	-0.002119728987011169
0.009835406785241323	0.009423778843279929	0.0009875228795339505	-0.00335475051701937
0.009236162469454471	0.009066085459146792	-0.0006619351164730083	-0.001292356929162276
0.008502637105871862	0.01556449173052988	0.007041720417265944	-0.001152162345125697
0.01593760290336479	0.02273715853900817	0.006888714074325942	-0.003695149805491849
0.01627362438352824	0.01875400773305662	0.002245254698505976	-0.005445321324913293
0.01213640291657306	0.009592481324557461	0.002458517639510057	-0.0002745289532273943
0.01776838458478607	0.0100494926261172	-0.0001624067148595309	-0.001087267799426362
0.01096254383827993	0.001481836257935213	0.002325917395952755	0.002220255172485037
0.004828469768200885	-0.004200263499982681	0.003461569031688822	0.007797608811348535
0.004145830474225843	-0.003987465408555709	2.030783874961312e-05	0.003128892976314781
0.004921606831047452	-0.01026138433479866	0.001159697749188221	0.00831739384194002
-0.004414747577106623	-0.003883169642336102	0.002932051612153293	0.000934084389201785
-0.02229542347011169	-0.004036104411739525	0.00362163819613526	0.002067660467140327
-0.03579669816664937	0.0004327579947437927	0.002027858814013623	-0.006615565385111038
-0.02216623946025994	-0.0006632646096414206	-0.0002429195557930085	-0.003520686898937672
-0.009619576346863761	0.003893124511418457	-0.0001844994424485609	-0.002462151135747784
-0.008019875133412667	0.0002703904000667366	-0.00188433033624918	-0.002094031860848681
-0.002176676879764055	0.009002785327831398	-0.001696199681005288	0.00195238647248883
0.002648410469931599	0.007057215253951173	-0.001046950569649946	-0.01219851509380636
0.01390853700004014	0.005047541709163145	-0.004242774480161509	-0.02352087900518425
0.01266917900581626	0.01023137501807138	-0.008873198321957447	-0.01792098417058108
0.01142126483342222	0.008251786284220625	-0.01118687033179539	-0.006118369773820249
0.008410165174115199	0.01022448118736877	-0.006536718229940605	0.0002115255241372242
0.006034795319450276	0.00506328375949914	8.511788679857983e-05	-0.0005283017236971339
0.0003199769551593672	0.002805381215500102	-0.002530750853278865	-0.001027865337188198
0.01011362215930051	-0.001062153218636166	-0.0001408486062165473	0.001514028268402175
-0.02733109530493066	-0.006259918798515645	-0.000854052380929336	-0.002354441852657907
-0.03000646124099906	-0.005479487888201619	0.002555972181600791	0.0017374220435487
-0.01122939526611192	-0.006382998613951612	0.003846460799071206	0.01123735346270016
-0.003969526087633625	-0.006808446062481465	0.002241159989253707	0.006815005425849187
-0.004777595600749457	-0.008008872510892183	-0.00363592551340778	0.002543217090295546
-0.004155174892512104	-0.01248417206854075	-0.001445628069533543	0.00571191992818562
-0.002613208833314956	-0.01310143798748323	0.007098798264945749	0.01039295879095914
0.0006939068193411723	-0.01219759218737134	0.003437389138552548	0.01608140857965656
-0.00307426147033954	-0.01247714599879382	0.002764380041064748	0.01405229987879835
-0.002835195922412383	-0.01099855258443046	-0.0006665702944942946	0.008496487388405433
-0.00195069772979487	-0.004544137852427345	-0.005448738450062739	0.002515067954588818
0.004933944768758012	-0.01076455091096939	0.0004803537575199142	0.002064965897112361
4.477794422160406e-05	-0.006901326285874084	-0.0004389317993607508	0.001053275484828395
-0.005431331386989143	-0.008549054220488024	-0.005993271238221798	0.002104851792556621
-0.01040012322238125	-0.00691302271208547	-0.003338738183687593	-0.0003687736191224637
-0.009789428367288255	-0.009495457923008368	-0.000179522799593746	0.0005098982036038788
-0.006428005343009163	-0.006462172533952818	0.004970463040108975	-0.000701639253935747
0.01574736766916184	-0.01172217932898357	0.003276757549014244	-0.0009958478852142621
0.006795990223823113	-0.01156013193208718	-0.0007575880685508319	-0.00108203936611081
-0.003625390090847993	-0.01028364779986906	0.002232831241324742	-0.002258002575503058
-0.0006244881927490594	-0.01007557793196075	0.001831099699289115	-0.002136763265842754
0.01082561209111933	-0.003442388346527812	0.006473313130785961	0.01677121985046391
0.02065685796598966	0.004426674547821747	0.001625081736545582	0.009820107341939489
0.01866949274847842	0.01513002998110335	-0.0005113227788151023	-0.001286741750046376
0.01327159469845245	0.01970749141223577	0.004605897752927301	0.0016318424883324
0.005254045734697051	0.01475578893563253	0.004101844060660765	0.003255121392838344
-0.00344057427007554	0.004175722497664395	0.0009199404967615151	0.0002570470013580281
0.002247442658651962	0.004580840432967361	-0.0006469661696514254	7.236954371249747e-05
0.01123202750599769	0.002260384546367087	-0.0104772686863994	-0.006478498958522529
0.001546588010858867	0.001990648677898562	-0.01257226579052483	-0.00584978744223549
-0.02237519078477171	0.00486880992038213	-0.008574751326218613	-0.006527668414003487
-0.0035284192988381	0.0067622709431747	-0.00173224113321261	-0.001198943858087553
0.003380565331752549	0.002907385974539586	0.0001669820783295334	0.002746102137187633
-0.002610959126935933	0.002061791015086423	-0.002175789190652718	-0.004737784712078503
-0.01876389682005033	0.0001388148109606161	-0.003493018478465705	-0.005554051485836374
-0.01302127515008996	-0.001827528703841928	0.001102448923025056	-0.005361374676535695
-0.03035702903486129	-0.0009222410765537456	0.002023301167598137	-0.008345176841529613
-0.02935373103832135	-0.004472633511393426	0.008809352394293542	-0.002554940106866873
-0.01194763109910315	-0.003784510590915927	0.007778804082561859	-0.004198760064204097
-0.01725997449318051	-0.00665859424229316	0.006956205472833695	-0.004990454789190536
-0.02154390181023581	-0.0116042614866954	0.008408368668395465	-0.004037055708520596
-0.01151976738699621	-0.01161976703400769	0.007286778194130872	-0.007080113748411773
-0.00208193720231417	-0.01191205734781103	0.001960638620238403	0.0001906855404211601
-9.470022072264109e-05	-0.006552060192070346	0.003506542778979169	-0.0003038324825915649
0.006331335516785188	-0.005694010121162414	-0.004697055414213512	-0.005582835492400061
0.007002587750913518	-0.003086621891064758	-0.005731151647991929	-0.0006290795758288696
0.002208116189078361	-0.001869535603176568	-0.007183122969973211	0.003457969102583684
0.004267189720842775	0.003128319136668441	-0.005148701697735152	0.01465550923864276
0.005516780735507106	0.000343184513497925	-0.004618986552686807	0.01055569362654302
0.002484542949173782	-7.128114817216212e-05	-0.00550479765230616	0.008658527209886427
0.0113789642159348	-0.0003185269018115438	-0.004244398685761095	0.01136105882514294
0.00766725611249771	-0.0004742587341536876	-0.002718453481272258	0.008216885136969915
0.00685919390087856	-0.001155880055024187	0.001369197722652378	0.006519933411614741
-0.004832621923590978	0.0008439994341742701	-0.0009903074677399841	0.003917182763449235
0.0008755931166150962	-0.001378072003295382	-0.003157687180689827	-0.000816073964663307
0.01038619699013015	0.001193491659658078	0.002927890507147275	-0.006185284324108834
0.01842235179896161	0.005254340968934148	0.0008281692186203946	-0.005237835263773021
0.01356812871752892	0.01152259972583452	0.001412077783651962	0.002957097608701246
0.01993965220409191	0.01199202758844531	-0.002041615184842796	-0.01624157440833775
0.02041441764767207	0.008260606240692341	0.001365755639800544	-0.02006445348512442
0.02631217233381261	0.005861481714307337	0.001116358210296553	-0.01484235862125962
0.0188860858677336	0.0002294430918715652	0.001533478523976019	-0.008653325464644418
0.01996244648971792	-0.008842516236247069	0.002668751731446817	-0.004485470426028378
0.01878586184429931	-0.009491315659156147	-0.002868317239031755	-0.007853254043009033
0.008264329892058993	-0.003151892345664778	-0.002298835400440414	-0.007539559830853518
0.01032839914280933	0.001278030685485759	0.004273518088680432	-0.003971745263801736
0.01184461355289498	0.001984788673535963	0.002140500237924171	-0.004122690209149511
-0.01086765374444075	0.01139857656022748	-0.001817864876423518	0.005664250169077374
-0.009443768396320419	0.01523376860299059	0.002146057483132387	0.005022377100385747
-0.001321658355737951	0.01571364059069979	0.006925943105588269	0.01044881394389054
-0.002675661262480638	0.00918923530998242	0.001629163955916435	-0.001063574570102014
-0.02308749370071212	0.0143994546201023	0.006310105770060194	-0.003177051283974534
-0.01828129120822147	0.01268999185115067	0.008895535965487079	-0.001416337815166794
-0.005797101055230421	0.01566753370187865	0.008955571194600335	-0.002084253902493103
0.002747580172635936	0.01071985054624151	0.002835556108764676	0.001866376670392531
0.003354628669011512	0.01121212895930608	0.002470665352782909	0.005820244031143241
0.004932698275520842	0.008379602572244179	0.004572467481696224	-0.0001641374957085867
0.003270981928762468	0.008650207043776312	0.002710084372183537	-0.0009636798813390131
0.003768201342926883	0.009910302592789974	-0.0007869411812887267	0.004890253414869589
0.003670295985895749	0.008179754667288899	-0.0001631819667247307	0.02069669253267586
-0.004905495069130044	-0.003622977032514372	-0.003713030062460126	0.003914888245453125
-0.006529112841338004	-0.005451434359580806	-0.007164892806855751	-0.005709944486319392
-0.003862152113127202	-0.00524654689409199	-0.0007511739111621331	0.003116912087924996
-0.006390366324880861	-0.005639143542317417	0.001298915689081323	0.001282682715125153
-0.005695052316297714	-0.004248563095837757	-0.001742375737717579	0.001692054157060721
-0.001996419729820144	-0.004948568069952205	-0.001743877334163869	0.005224584476821492
-0.00244342241184208	-0.00125279900059632	0.004039318075225052	0.004754121098884557
-0.002829941581619346	-0.001068593676344585	0.002325370839754764	0.001052913310055096
-0.0004893224860480702	0.0001480332603266442	0.003578096763754131	-0.0006004638068698985
0.007763280207358494	0.002754405171498904	0.003126829534009607	-0.001111221212228384
0.009085658834705371	0.007919619393776094	-0.003355440753088105	0.0002633050417881694
0.008360719129133031	0.009133740223360094	-0.007872952296624026	-0.0004470300160440908
0.009438821647500682	0.006507203445387328	-0.007426412572608292	0.004944562443714455
0.00873834130407251	0.005325223356914517	-0.004080492095853234	0.006232231117659945
0.01359634585586527	0.003450198834709532	-0.0049566067735809	0.002142612953529575
0.009317669067321274	-0.009537032470729149	-0.008870831366406286	-0.002434485346210282
0.005818030640026799	-0.01567898289065247	-0.01015451710611585	-0.002180036212447283
0.0002205157101663809	-0.01413304486793876	-0.008145758035711638	0.0007259103049277637
-0.009183146111541446	-0.01725136430727192	-0.007814800193736406	-0.002737075329162434
-0.0154170272203931	-0.02401903296917904	-0.009474637326513793	-0.004942602834665531
-0.01691288401305462	-0.02191340119214247	-0.007267707154232342	-0.000373566650343411
-0.01541270344169586	-0.0172639676965902	-0.001718458276458266	-0.001795785339183946
-0.01139500466846083	-0.003907874511591178	-0.00315479962418204	-0.003021718855855468
-0.02116581844297061	0.01119982044671517	-0.0004611736976570025	0.0007491739976403187
-0.02366965316097088	0.03017413160777814	0.003305149607008111	-0.0004338989583143952
-0.01854559580926609	0.0200754550773708	0.003655364212943966	-0.001737722561752315
-0.01269633925218261	0.01038593895849372	0.001423976062626675	-0.005517388158435235
-0.00923328754040074	0.006216323917148783	0.0002561947249896647	-0.007331174525008204
-0.004485798556411472	0.007643835507054018	-0.0008277437336701092	-0.0007980817008624262
-0.008002823547504366	0.005184311801064294	-0.0002746314891967355	-0.0002635860210079627
-0.0006372242610592307	-5.83634221186193e-05	0.003189644323773711	0.001593374666912707
0.004275531311190748	-0.0104846506957378	0.0009563772653229572	0.005802616661973777
0.002091693670663994	-0.01654017956203156	0.006523488849719107	0.001193053890365329
0.006173342765543845	-0.0173216919084594	0.0003178669952974401	0.003500384472747066
0.004586546491506556	-0.01037415962860194	-0.0005682591645209464	-0.0005516211172249068
0.01218003723332367	-0.01086162454332227	-0.002550534267203525	-0.0003799438622122524
0.01794543977513474	-0.007700808553070077	-0.002450713370442812	0.001431073529984066
0.01570272300972528	-0.004990948630592153	5.850440044210742e-05	0.001631642765084143
0.01776153146835317	-0.005619112055179233	-0.001325009742713556	0.001656138795469316
0.01409667744654494	-0.01071825137215952	0.0001392958219850657	0.005262935981451342
0.009701461260543491	-0.007357894675551783	0.006065532826840423	0.01186104985586207
0.004605384860759036	-0.003413749446724471	0.01006549235274135	0.01805948093330921
0.01669010641657865	0.001620167146715967	0.006869540138639775	0.01209362143979429
0.005833942550368028	-0.001639167363424598	0.009968849210048054	0.005792720370881779
-0.007077324751894025	-0.003042196109589342	0.003412700790954637	0.00269697570413305
-0.02903545493444885	-0.007192106645532274	0.005638853973658298	0.003538821820578341
-0.05288293905846659	-0.006288916773565058	0.003521545721110025	-0.0007071942130810812
-0.0303371090391014	-0.004930104879438243	0.002683480392244017	-0.004328092513893383
0.004429346122262578	-0.01716900374152687	-0.01012104416847678	-0.008376846224363585
0.01291231108753317	-0.01334482102619614	-0.006985489872557115	-0.0206832253959204
0.01787556347251392	-0.01113530274938533	-0.002210810728094689	-0.02117789361556012
0.02071561995267403	-0.007756672764859343	-0.006185926082298898	-0.01234145561398118
0.01300200210322966	-0.006270304893286327	-0.003367393287887344	-0.001787538075548579
-0.01480123290475004	0.006096444864214213	-0.007208864145394393	0.004448074721023017
0.002842615367017615	0.003788922477356796	-0.002048527983410907	0.006725888254132326
0.0003253937722486106	0.005336767113352779	0.001296882310148545	0.000767964815829549
-0.01933475209698169	0.008768228038269358	0.004251260116211815	-0.001503267087497887
-0.03460638102271954	0.01217642973041617	0.003910132587419332	-0.0001906372471489104
-0.03127093239895944	0.01560972506154469	0.001751941624692314	6.198067460557268e-05
-0.02671079220322976	0.01367335022279305	0.006528282212385242	0.002500530235529816
-0.04710095955271274	0.012504847052563	0.009432451464005932	-0.0003040942128118159
-0.02005470762062567	0.01424806400923384	0.006390846946665076	0.0003094356978924506
-0.001204011396508334	0.01246633520513916	0.008798765759379983	-0.006770038554253973
0.003557337339490742	0.01291745873240771	0.002340298364119328	-0.00940352313243013
0.01138349673154654	0.007754802090480237	0.0005305230791285793	-0.005756887237357257
0.01364443737892288	0.002792048017520239	-0.002282706584574318	0.0004838741185293446
0.0175590937702019	-0.004268814266910303	-0.00137013388428453	0.003325831157872776
0.01361292967909077	-0.009489045628700003	0.003626868835346012	0.01756527891878335
0.01532041029514426	-0.006922922020482646	0.004045931594380015	0.03200665161852017
0.02054459005623408	-0.006227132381982957	-0.007083290081095104	0.00987676304431378
0.01648569124669387	-0.001948437949104575	-0.005616194437730835	0.005896977555991116
0.01118700345842033	-0.003828380214796859	-0.003690647541059927	-0.0005753818697783009
0.01218359922247396	-0.004942887910923802	-0.002517207019498111	-0.007739795147562106
0.01368266871816912	-0.002244603647485656	0.000174420576482245	-0.002718952739131902
0.002472395217476875	0.002031741395123367	0.001660807671878837	-0.004900770500072382
-0.0007801961237274989	-0.003962582502476959	0.004816742532551332	-0.002395029209577176
-0.005505223802261076	-0.002773906085834982	0.002871280704430438	-0.006471347883219837
-0.00608764776283242	-0.003475094434519079	0.002238511335932455	-0.01160860039335349
0.003480491316515103	-0.004760127207349397	0.005010015114306268	-0.004618664427392421
0.00742259939972656	0.00178768152325481	0.001877782912227598	-0.002599231114629533
0.008670288257242814	0.003582147602965511	-0.00411145877143236	-0.00503300962592718
0.01246351656677232	0.01423266669668303	-0.00515649844582893	0.0006421399981626672
0.01010279823315526	0.01328113420150086	-0.001629066540008638	0.002864177112013229
0.008620359582045748	0.01775910450465342	-0.002169243781942846	-0.001829831429367853
0.004946299309702673	0.01347991443330067	-0.006441508041797466	-0.006329110136694968
0.007925053352649919	0.007065365520040653	-0.001578238992784137	-0.003455129236760688
0.01445436173532468	0.004376432769693957	-0.0001198216122012015	0.002907121967352019
0.01552119352669411	0.005928598704073229	-0.006240195094630213	-0.0008088143920513631
0.01353206614681825	0.002635884625227673	-0.0009914992520842004	0.001428986101649611
0.008466455007267093	-0.005387774775976169	0.000397908832618743	-0.001337724584893663
-0.003467262892571973	-0.003889218565023633	0.004637365806503028	0.003065336931379611
-0.009936120170693948	-0.005943282517697135	0.004317333759324116	0.001180747617805724
0.002270927684265742	-0.004214700975252882	0.004995701516889188	-0.001111368734814573
0.004267779372819846	-0.002901349171820835	0.003717709729962882	-0.01019874293524924
0.007743013950949952	-0.004775524275935084	-3.214342169605163e-05	-0.009944643206663776
-9.013195646246765e-05	-0.002485641184537756	0.003197493609089155	-0.006699927625009727
-0.0009696341610108117	-0.0008062785140999004	0.0043752976875556	-0.007361951850362858
0.002458231529755507	-0.0009085561054828886	-0.001681565484922635	-0.004594849112433704
-0.001932322125174637	-0.002139833260757006	0.0006514742553444847	0.001095210900970643
-0.002719782726797777	-0.005741999286630462	-0.0007683262678646854	-0.001628801194535205
0.003451699375180528	0.0003938988120233443	-0.001068551395085242	-0.002277690078788975
0.002874773466040332	0.0001791427124873513	-0.001877625614933097	0.006026842107776884
-0.003944006310698479	0.005100004212103848	-0.005257692807310374	0.002639166646898532
-0.00744100807541856	-0.0008099048315864609	-0.00601130017970302	0.000604808215582215
-0.0007130976734155446	-0.002543218435652243	-0.002536266658527014	0.003892958914898775
0.004478075583683763	-0.001246574377779497	-0.001926875447750644	0.003341936647359461
0.006560018463003484	0.002602130895194428	-0.0005202048947652957	0.001373908808702563
0.003364131952807618	-0.003268172915302215	-0.002710953823261407	0.009989333353660392
0.001220356767505758	-0.009409212510004589	-0.0006463981073482406	0.00741324871611236
-0.003702136994747347	-0.01088095460737171	0.002192309112880329	0.005465749430069007
-0.005080844536859773	-0.01401187557164197	-0.0008004018919286031	0.007162872923312189
-0.005020824141868272	-0.007853484140707911	0.0004105295492843379	0.005442970041658239
-0.001484398553690325	-0.008262308775448982	0.002463422206910329	-0.003340611372339766
-0.01681370774825146	-0.002762801712566106	0.001901315484819407	-0.004503308397016907
-0.02123463495145179	0.002729693167863685	0.003489026780694028	-0.009906416330552094
-0.007999027008337621	0.013133815760906	0.004217940304391527	-0.02435397608765933
-0.004744302097964686	0.03443935354764646	0.00680809867057744	-0.02101763437917976
-0.008623427162610199	0.03633705800868887	0.008025734474506155	-0.009452287781445868
-0.003199689240363806	0.01467091262722448	-0.0009558156693238408	0.0006291507943185368
-0.001948129347963351	0.005715353478462883	-0.006424985608606315	-0.0008263831162792644
-0.003229295642173665	0.0009202327869694651	-0.007920273098185559	0.008863718709442907
-0.002644929974681011	-0.003876670841935136	-0.005055440253212259	0.02070840861704654
-0.003868954893301081	-0.009473728289321571	-0.008058371714195236	0.02810419383448443
-0.007297155425278892	-0.0110944163466834	-0.01130819978509475	0.001763398866378792
-0.004855033661671128	-0.01448795998849	-0.01486054431741179	-0.01191645483995792
-0.002211114420159574	-0.006428375101962294	-0.01117075328496738	-0.009360914552252589
-0.002594272288758797	-0.002205391533629997	-0.002328450801609946	-0.004815782414262327
0.0007777562257639083	-0.004642901362467936	-0.0008990529548344683	-0.0009407099317117417
-0.003625087161715589	-0.009705676495442342	0.005716878003039209	0.0049868164362604
-0.002902339025606131	-0.009174457137906647	0.00960062428577909	0.0141630775005703
-0.001424692692279996	-0.007174619628814263	0.00819142382164012	0.01331739510543037
-0.004359745886896031	-0.01193727032386806	0.009608749466201029	0.002412067324571231
-0.002202046420884815	-0.01128316004716314	0.00692224077714755	0.002559244864829469
-0.007212578274353026	-0.003287534222105817	0.0009408307831576155	0.0004945726971742922
-0.00412527189956855	0.001109979704532357	5.128410566525009e-05	0.0006652709833218523
0.005233788371107744	-0.0001015473814240264	0.0008050847985340096	0.001660519195511677
0.007272534765171758	0.0001093075057190299	0.0007229310566104121	0.001953448760013284
0.006554354869864836	0.004230303256282073	-0.003576391171746901	0.002569636854269126
0.009006893171811114	-0.0005872412492513741	-0.006120670038704397	0.005810183346300776
0.004248016134326725	-0.008724056222827754	-0.002162503943803855	0.005602290502886202
-0.004686125126774703	-0.008368524887355733	-0.004031626106103606	0.008759682757127815
-0.005857445559235109	-0.01327522050150247	-0.001492699413223589	0.008649525446727327
0.00106890742648742	-0.01143710500789854	-0.001865587356621555	0.002786686769302814
0.003319634416332572	-0.01114024289815837	0.0005616396725907395	0.007252470238814957
-0.001519082349124166	-0.008791038956293797	0.003556246010042504	0.007450640293498907
-0.002784009179818535	-0.005522937348938836	0.003001456907480134	0.004038242753360775
-0.002912118563583048	-0.006977057598321205	0.003739588580775201	0.003567133756351193
0.001949497956038044	-0.005908925673365755	0.007554821574925931	-0.0002512990516157659
-0.004941596147561348	-0.009825191926204109	0.007678722041007132	-0.007316864166706889
-0.004223101558232535	-0.006092493445591306	0.002502903316075299	-0.005057446862793237
-0.008301093069764157	-0.007871709264608543	0.00212958280793972	-0.01524756622813063
-0.01080248703597299	-0.003344338760278365	-0.0009537386401015	-0.02683203753195102
-0.00506348621726482	0.005847120799329988	0.00200399811325032	-0.02052714342615217
0.0009588993597166727	0.01268505224804229	-0.002194425423628178	-0.01210625605188077
0.003943551961246007	0.01388111376517777	-0.007103450673116635	-0.007903191940752669
0.005633904199192829	0.01067306983189998	-0.005570083124603484	-0.004999720857811031
0.001559557484755916	0.002198128220817352	-0.0003710585705729682	-0.003608749504657542
-0.005520888595289711	0.005193520799264919	-0.005776214801250718	0.0005832429589379805
-0.009656708072033079	0.006088199588299188	0.00222464114193886	0.002938787672565928
-0.0002751197918844868	0.01107893769310794	0.0004900593967164995	0.007436625489210882
0.003804526261873077	0.01486352398364112	0.004023108056366388	0.01839504722640655
-0.01124912504186183	0.01113718310434924	0.002786597371411834	0.005306451188344138
-0.02616748641274332	0.01122163187270912	0.001419949425431874	-0.0003587495466971478
-0.004492938264146612	0.009289447663325111	0.006316487965952187	-0.002291539609461765
0.005537484752503759	0.01167888603251114	0.003927178157248397	-0.005757666657283936
0.01211724947113605	0.0140333053139271	-0.0001442607106784053	-0.004863036313901769
0.009936851576276214	0.009300558604014009	-0.001358849519088849	-0.006152081024431891
0.01081117445320471	0.0114627557129726	-0.001687455928138043	-0.001779249858024096
0.01233345377347653	0.01336618383865839	-0.0006415856099231009	0.001454403320492908
0.01545312571106943	0.0179325122838291	0.001024228532491717	-0.0009499559123562968
0.02477790029330146	0.01896038894097408	-0.001534520758139046	-0.002715699014216734
0.03211234314936039	0.02180033811243557	-0.005790152628156795	0.002190951463003436
0.02200548194738333	0.02161382353648349	-0.001065804470468602	0.006705719007017498
0.01281364078752649	0.02075760447589208	-0.003195441863296257	0.004853014537281996
0.01197202217317865	0.0187085079666941	-0.001118673828137753	0.007264075574116563
0.01132151247944602	0.01452735499853365	0.0002716521772364041	0.007295349391408016
0.003346437411699096	0.009538095871279075	0.009195650926616672	0.007202970733739558
-0.02605401413513399	0.004419802237897256	0.006058214493993103	0.002556920276815826
-0.01670907929619064	0.002397526844366921	0.003585008495548502	-0.0005976501491636374
-0.01690776130440654	-0.0007676553798830596	0.002735519199344232	-0.01020313060716712
-0.01560314719125041	-0.005061259084821194	0.001795243879231114	-0.00144508753993401
-0.004799761319770959	-0.003509127366412465	-0.002018661794973836	-0.005540441081195734
-0.0005370334755759755	-0.009455455745049803	-0.006076601328148802	-0.001686835160340502
0.006177693861074619	-0.007718978160826927	0.001063490409400512	0.0002805312151538412
-0.003684022183828013	-0.004462875780515353	-0.00065372998739225	-0.003688469623689294
-0.01438958896300698	-0.01003049929938373	0.0006360190536711085	-0.003163996961539346
-0.01191641331127762	-0.01114659238934394	-0.001424837908152167	-0.004324263269605393
0.0003866560279943834	-0.00188872875892379	-0.00367418962905181	-0.004453709942243918
0.007589078244840885	-0.007361015613317644	-0.007707533264946357	-0.006110103575119394
0.00981953380652997	-0.007794757296621047	-0.003694993573581561	0.0008719148595938364
0.008434771202132138	-0.01603867169308273	-0.002422562537441372	0.00219531649878064
0.005219371490135449	-0.01595445571166132	-0.0001013330129656481	0.001095995819299533
-0.0006444226112794697	-0.01189530365157729	0.004672212101885238	4.243238481666854e-05
-0.003133004949177179	-0.01440210417455783	0.0009051331688814611	-0.0003458065597159899
0.001304262003123223	-0.01908169163393499	0.002565482610914629	-0.0006779424877381103
-0.0006924694097611988	-0.01643350859148101	-0.0002875241424995906	-0.002186378552592795
0.001064323325354806	-0.00827692022913774	-0.001928040023441459	0.002745596855750981
0.004296504939277618	-0.009789045468864915	-0.0009583595573029227	0.008894103850447053
0.00344659505481138	-0.01880822573205384	-0.002522277750657441	0.01070743044648077
0.007639623923149923	-0.01894970962350401	-0.008203792966962997	0.01251629065868181
0.00560789723161573	-0.01404990369128656	-0.007188890131736948	0.005561166580061267
-1.26361870695424e-05	-0.01204466275910787	0.001199099413839563	0.008457097830877277
-0.002820323529514305	3.404569820449673e-05	-0.001266411230508286	0.002423233678543635
0.002360152104162317	0.002152395137825255	0.001864299887589781	-0.005820752898674298
0.0107072899874502	0.005548096244349442	0.0004861803657506562	0.0002559646440881454
0.005667900134013688	0.008961041420920244	0.004331376745603664	-0.0167001216637986
0.005554710735797753	0.02891394385163704	0.002261636735181091	-0.02621145897476238
0.008505374209926787	0.03375635381380909	0.002694450980682088	-0.006711535195801165
0.01062980128190214	0.01665062545021592	0.004033367314511554	0.009066033844248459
0.00616044780413953	-0.00713179875139241	-0.001240772024304388	-0.005093324921034603
0.01047972099513742	-0.005412881164627122	-0.001143778415341029	-0.006422573045063047
0.01365009055479491	-0.002908945324074171	-0.0008759255633065341	-0.005307132180734056
-0.004040104002255059	-0.005759527957426433	7.677621994501232e-05	-0.001869508285560499
-0.001110242714138955	-0.01034675576552952	-0.001458532485739655	0.003528604526094316
0.003443317070139937	-0.00706627614639442	-0.001288972260977111	-0.0001723431007214199
-0.003304636252208129	-0.01016092518658304	-0.002523321017315079	0.001682389923610421
-0.009329291123643363	-0.01389505634498362	-0.00343529309192792	0.01377105655726221
-0.006136032074586879	-0.01188352052842775	-0.007039576785636957	0.01326691833732556
0.002550378307852621	-0.004969701295225372	-0.002827089716029889	0.009398587044980132
0.002473855382262711	-0.004860633952297466	-0.001755132431946251	0.005343710967493196
-0.006434916810767064	-0.007758676680708296	-0.0009557728010561272	0.00418455985776755
-0.0116323815295406	-0.004437222318125918	-0.003263632983657104	0.004505870166439433
-0.006990384600310775	-0.003059050777161532	0.000458564217950861	0.002716174697322135
-0.003985112224120763	-0.007364688580657024	0.005195686826900392	-0.001643006370329533
-0.005301145128389757	-0.01225401669717557	0.004587144623069207	0.002174545745862491
-0.01245904317916404	-0.0207139282713861	0.007272107558081655	0.008384752374179879
-0.01880642977463044	-0.02540504699142938	0.005156456973472292	0.002038433179264131
-0.01448481125113208	-0.02334039352110968	0.0005491621914664853	-0.0009171729682128735
-0.01341092647227553	-0.01428295478564894	0.003678703708446794	0.00187175772775089
-0.01567784902098528	-0.0139112003313336	0.002232161622395117	0.002819351012777944
-0.01725630015568341	-0.01097758238000638	0.002332197880102554	0.001149285239880633
-0.0128769263589542	-0.006431588337268176	0.001625895423334627	0.005246703845918622
-0.005124519208000833	0.01079572263574775	-0.0007390115224925908	0.001814345856385866
-0.003911625003286913	0.01279464937825842	-0.004564685254021119	-0.001106904648590948
-0.009118687035865729	0.008093252209839058	-0.00683270784872322	0.002847935866708533
-0.009200370040127814	0.00584157992412923	-0.003021360363807599	0.003608885918896606
-0.008679802284066434	0.01035848086260328	0.002576371732270317	0.001993000080019147
-0.01229921519519451	0.01650867259250326	0.003512249198383032	-1.165397825268229e-05
0.01573505001604423	0.02225686432943452	0.003445491802645095	0.006237532975234798
0.02014307323000847	0.01526659073619781	0.008287502676881917	-0.004545802365146195
0.0234257958059334	0.02102635289922094	0.001813368918325186	-0.008751390865313999
0.01661396693897915	0.0212106204035112	0.00594420593998083	-0.01261179670017436
0.008178296598727413	0.01753051692955455	0.00710247289433309	-0.006346157427358908
-0.01940026939263214	0.01564186016853381	0.004459564843365037	-0.006817167115083351
-0.01439763437325243	0.01570748759516329	0.004087888960764761	-0.00344304121488466
-0.01652989702040692	0.01805600681303558	0.004215590878763581	-0.0006002541361881579
-0.05082165828807446	0.01289635773023447	0.002104675520432681	0.0003334121810037494
-0.04609976759650245	0.007682716609886215	-0.001863457148145537	0.0001200408406767041
-0.01159191655987842	0.003523487354188468	-0.003494844218404227	-0.002965648727530798
0.005220690705052455	0.008116468604688187	-0.007892585165201714	-0.0009229640648201456
0.009865301300256086	0.00867978136531795	-0.00605702018163856	-0.0002743748057869115
0.006167626338483881	0.01148311257736737	-0.004202147683058399	0.002724431745159664
0.01205378839451498	0.007533770356392316	-0.008496158208386706	0.00130356520720149
0.01600470124450911	0.00619150628005237	-0.0001776440262704868	0.001168726659583555
0.0004664448424796033	0.007484122206198345	0.0009785041209954253	0.002422278073971843
0.003386165288926803	0.01138457638741248	0.001630780945183759	0.006183992570945205
0.009428736718605946	0.007390999399679869	0.007999452862138469	0.0003581126038463052
0.01470921185010795	0.01048294829882707	0.008425299668303242	0.0003476581648711369
0.0237625678673863	0.006492370194157788	0.008318042201154124	-0.004420608041227301
0.02217947131742142	0.004549228381419411	0.00523784850274789	-0.00175714426617719
0.01680095474653671	0.002018900567934886	0.001432301249186614	-0.01182158227100415
0.01958357137915154	-0.009592366329757886	-0.004617839992413041	-0.001245882136481564
0.02249746158954457	-0.01643681567682087	-0.004251993152515706	0.004869310572773025
0.02319011334586561	-0.01580443614845231	-0.003751791031775593	-0.00681503374335191
0.02027370101852456	-0.01376049640171376	-0.00683138537197571	-0.008062624506609817
0.01228266600474555	-0.01387458220747477	-0.005857883466322463	-0.01095530976841464
0.01589158685275858	-0.01142730234269765	-0.006305310934101349	-0.01044054965271139
0.008048185288648799	-0.01757852881602396	-0.0072494860945907	-0.008096416780286778
0.008573506500867972	-0.01429754311560697	-0.00653031401383353	0.002379814636305976
0.005573665432785647	0.0003140267041362734	-0.00166106971562135	0.001040743370504352
-0.008468955385223633	0.02990811790651825	-0.003728231343671439	-0.001211301030696823
-0.03819782153842376	0.02139367320387364	-0.003265600684267475	0.0004593905949124895
-0.02756798220414004	0.003291683966422678	-0.001970590624381981	-0.003469722143297648
-0.005291419816170878	-0.001735739267884916	0.003102213384226424	-0.0006688755655007033
0.00128522818366846	-0.002173621993499357	0.002665993832506088	-0.003466173267309035
0.005636808726806367	0.004920132288141304	0.005404022818872654	-0.003253999214848183
0.002431551906921538	0.00150281004949365	0.007917514751979948	-0.005889108216587021
0.004524958181033297	-0.007102822644672288	0.01024927389123934	0.007836229057928867
0.004387208094640942	-0.01479888754028974	0.005489272523974913	0.008576852501276813
0.0001189346402582703	-0.01193276999334823	0.001956273821735287	0.008555868579204122
-0.004170394851827553	-0.01457092756435762	0.007687298906068053	0.005781084847192581
0.001834404755486312	-0.01937115641732242	0.006263238592768394	0.02157068309723211
-0.0006233649739810099	-0.01146675535648536	0.002973882478018741	0.01200152943702299
0.0006139889423445394	-0.01146874321141586	-0.004885606637230728	0.002555509722776728
0.001300859254164351	-0.007279017065753145	-0.005485018851910779	-0.00797833467479271
0.0002162119801130129	-0.002939816035436159	-0.005876873907728456	-0.01358924640149213
-0.0001251169254433702	0.0004506632627404543	-0.005102084665513869	-0.01665102218832362
-0.002508082883673999	0.003562480783611654	-0.003025615085746805	-0.007826475770711893
0.001781605016578894	0.00539874729410417	-0.002607924271367484	-0.008088538271265811
0.002566596603169184	-0.0002851327586388407	-0.006907677641146259	-0.01250506492930639
0.005618116026673039	-0.000748476614007995	0.001042171719811783	-0.01476064931112114
0.01132875074931827	-0.0004277256427160696	-0.001520192354737017	-0.005480327738625996
0.01112625040072807	-0.0002964221219983675	0.002208864963432044	-1.498303690399696e-05
0.01229050206702146	0.00769742974842079	0.001270752249154588	0.00547213640515623
0.01059986836850618	0.0008579803766942209	0.0006890803442721831	0.005920285258040676
0.009832627706802561	-0.004014601364971727	0.001258120924718324	0.01258611870421148
0.009055826575435397	-0.00538966011434365	0.004231989903694608	0.01311082406573091
0.007566963452400962	-0.005560792736647233	0.001539286557008242	0.007970214707019875
-0.002682948120315394	0.0001511195340016852	-0.01088745504332716	0.00335805758124304
-0.007230558828717307	0.002214319959254593	-0.01334743511022264	0.0009017374660286931
-0.01713174522459246	0.00113789509946588	-0.01326387344001871	0.003242223338590758
-0.004416639338917522	0.005246839519271422	-0.006184261609770939	0.006537510729809306
-0.01048199783480042	0.01206537785369986	-0.007060832988547941	0.006248114406865533
-0.01869595466656279	0.01440729193863696	-0.006008958246912828	0.003181995803215644
-0.01818944438098674	0.01457073109290243	-0.002829265533657189	0.00415937653805626
-0.007155910866495119	0.006422979471977367	0.001675228603405619	0.004791980942782665
-0.004959463282565689	0.0003032830268289806	0.002616815288057642	0.01377534034699458
-0.006046945402852754	-0.0004215746303043923	0.006608748390573933	0.01162164461584299
-0.002624925177266299	0.0001467842329116536	0.008680854235318383	0.001170760738481115
-0.002881185707206854	0.004526254481761	0.006356424390106251	-0.0009147422872980123
-0.0210816276261824	0.001593391145644298	0.006692440755992571	-0.001273217241065802
-0.02127392680232844	-0.004676808401785815	0.004025982846151349	-0.00412967604364572
-0.004041285410783628	-0.001846231087522903	0.00292448680971879	-0.003519237488087612
-0.003309760826183959	-0.009128020348550626	-0.001803003594716574	-0.003033977534816381
-0.006182042291847716	-0.01185817745392788	-0.01050842051281431	-0.002093645256080534
-0.008058131695106658	-0.01216807042657733	-0.00953235605290498	-0.003844468261444767
-0.01015975268052526	-0.01677659588427426	-0.005157560519869962	-0.0001311847406928463
-0.008033368627344018	-0.008100193743155444	-0.009737364617777369	0.00272635495549974
-0.003026745033321725	-0.003422185038640979	-0.005948747308818868	0.003449195991035481
0.003664455425148633	-0.0008263516675602694	-0.0009107484657710979	0.002311926502566234
-0.01190522616087212	0.00500139940449417	0.005029436500109216	-0.0003085969657012378
-0.0062146731017898	-0.003233854861649268	0.001466477311312315	-0.002549595357293167
0.002616655816369146	-0.001174470531741488	0.004135028278334343	-0.004035056300387153
0.001252161047219434	-0.003022189213363543	0.006817096581799726	-0.004386598520750515
0.006659105011976417	0.002617066628839114	0.007770969831671829	-0.008393227848508109
-0.00103272094687064	-0.004143745029186444	0.009368120503053861	-0.005195113104159452
0.0006082786400375775	-0.005119082282744477	0.009180006909848886	0.00169942579771038
0.01203520573408002	-0.006522976643958585	0.01530688828328173	0.01055547549193105
0.004630314400132135	-0.01583288023848541	0.009568228356754017	0.005473904413744073
0.004604598411940406	-0.008890862214510867	0.004412682535332954	0.0007077749247002044
0.008480492647441532	-0.01002022378281148	0.001775763950912227	-0.006365862471068903
0.006697477311158536	-0.01366391738853847	0.0007723922931704158	-0.002977853883227231
0.004306065730116489	-0.008023905115674537	-0.003797292860163259	-0.002405735562954278
0.01508282185104525	0.004764373325511032	-0.005005804244771325	-0.001171471232489122
0.004864721557889308	0.008166736839892901	0.0001496203035922449	0.006024127625176731
-0.02119721657226597	0.006933794965433402	0.001739572394504917	0.004150889995639338
-0.0213565599256457	0.002760359049682505	-0.006488421133586801	0.0009061237498061667
-0.002044791250181994	0.01142062981511615	-0.00369139066467975	-0.002874911811640645
-0.007950022560584157	0.01494013790084557	-0.002420725180102593	-0.001496212552562779
-0.01045652790260688	0.02989080999770031	-0.001301619445956114	-0.001171481332674392
0.006253137602487272	0.02981636019397472	0.0009560114334052738	-0.001159080863483419
-0.002072625523574392	0.009379416048344979	0.0005802009308275087	-0.0003399640151607449
-0.01734734624190196	0.006210933861881218	0.003570424309290484	-0.0009924208046712087
-0.0210537565189323	0.009185299718622466	0.005383864735847213	-0.001208592658505688
0.001558385878533319	0.001784106783661435	0.00581217646129154	0.003964375882000598
0.007478038404628726	0.004604051952859659	0.004560164611175961	0.006122336122520435
0.01162246296632404	0.002036539837564211	0.002424039793543588	0.004321121071852097
0.01614342141700262	-0.001920439939040755	0.003324417337955845	0.006379550376554109
0.01635742606830801	-0.005868434002632501	-0.001176540011756266	0.001127977479401966
0.01495418738603032	-0.004845651150187182	-0.0003889889404190237	-0.01019544711073336
0.01010301739587264	-0.006021775928214751	-0.001700352184727159	-0.004160940325442648
0.01020406176298694	-0.00517970592439805	-0.005114738000175127	-0.01134124520651271
0.007749256974508468	-0.002942573348511583	-0.004962407979077628	-0.01744622094938723
0.006415695514896444	-0.003538668391575753	-0.002002942881067431	0.003995631779939298
0.007186766948121836	-0.0007444796201533307	-0.002332119088426288	-0.003739173597527667
0.01023659656123555	-0.00134420411808422	-0.007215474903146659	-0.007879215869031493
0.01261618980361761	0.003915613436703914	-0.001734658340150036	-0.004286040610088619
0.01189244556421484	0.001109219080635239	0.00436123087160897	-0.002789273069649971
0.01110280090694532	-0.005008869627166863	0.002809002722430841	-0.0006823751058706394
0.008575769588080482	0.002915009598036069	0.004873241132418093	9.888549244893449e-05
0.01310490747054538	0.003853932617324975	0.001755571310691529	0.003179391652088446
0.01962740738394913	0.003490098325798821	0.002911552023865477	0.002479954346759825
0.01574002013802298	0.001377738044098274	0.001072851125865317	0.001906911724417571
0.01345610362486408	0.005346100096840764	0.0006714153295469025	0.003120184798694722
0.00426945689788062	0.01631968048493558	0.0005834688589557299	0.003628402305122921
-0.0005559276636721909	0.01501461515780554	-0.001100124258236124	-0.001084469142961543
-0.006623532129498006	0.01128739819074224	-0.003780044059632964	-0.001838813743201521
-0.01211429201597466	0.01041378666189448	-0.00898508326949317	-0.0003057042011189388
-0.007347038791345729	0.002384859209250939	-0.01025490232666538	0.001309738937524238
-0.003011735465325765	-0.000173280637742773	-0.007215337535871776	0.001687855906353742
-4.943750474306011e-05	0.002501923869185249	-0.005825106992433457	0.004905911746617522
0.004535860697634893	-0.003301824573741778	-0.008889066352520337	0.00466748545474333
0.003464009224371547	-0.004943631253281514	-0.006725832879998576	0.001560444693472974
-0.001138576875205723	-0.00685277955076179	-0.0008013353659137646	0.002716935593748315
-0.002311940141597198	-0.003403348471284735	-0.0006031039449761749	0.004411735836766817
-0.005789768965200266	-0.001950394140898474	-0.003436800921650303	-1.812872274959893e-06
-0.002052102783694794	-0.002527633175998846	0.002051338255362624	0.001756886367669256
-0.01821749283625474	-0.008589600475277202	0.002151663528893305	-8.493433170077873e-05
-0.01482852712202519	-0.007035332661013925	0.007620341773252448	-0.00111959581940762
-0.01241994068798734	-0.0007774773474596642	0.005280743461441767	-0.003229080306704305
-0.01440535966913212	0.002101191993187823	0.007026970517408765	-0.002396749857406606
-0.01866727018627806	-0.0002651131125623529	0.009929317030987626	-0.002422079565378433
-0.01285266691041902	-0.0006295010237107352	0.007662122068718251	-0.004921727596742672
-0.01359689875534946	-0.005434601079179863	0.00163077878708485	-0.001297583253439126
-0.008048274937991002	0.003445669895547566	-0.003183935483428233	-0.004420877262589598
-0.003792248557561015	0.009243651955456237	-0.007843000860735659	0.0007506143852018132
-0.003302572597339781	-0.002265869569727508	-0.006149312826946091	0.000782551083725561
0.002881515638989446	-0.006164442250593503	0.002743943540842343	-0.0008571252602471933
-0.002746136356770199	-0.01427990902703232	7.47186139283576e-05	-0.001208876927129921
0.001674460761217791	-0.0162002164518889	0.005239581100659554	0.00691810076660002
0.008179419073076377	-0.006104303662690977	0.005067185436720248	0.007022565249032364
0.009119298655479757	-0.001270452675978827	0.01071138515152906	0.007168561758182325
0.01023404376498264	0.0003608710083797905	0.0046150473849399	0.006059410289461225
0.00513064968664922	-0.006949252402427516	0.009677386382795472	-0.0003978182852868188
-0.005242315983159284	-0.01103951636836497	0.01012929653643281	0.00282045896806766
-0.006597791871848653	-0.01043959952163733	0.01365775245646549	0.001133370679717322
-0.005087683645852895	-0.02318566954286522	0.01223915811799001	-0.00225212312735647
-0.00491936359254808	-0.02054196882491936	0.00386769546009406	-0.0088079198479142
-0.009241190677532237	-0.01329293538356327	0.002948557132989055	-0.005021709308867239
-0.001465802469180202	-0.01041784131018182	-0.002267614450726635	-0.007489312805568889
-0.004032725337589712	-0.004997854731318864	-0.002592545458259385	-0.003384883309689138
0.00362707396072782	-0.002982933319712677	-0.004266401731255981	-0.001259102151042535
0.01588163551432279	-0.002735085092776311	-0.007887517694274543	0.001349831354286117
0.009135752169385468	-0.00285766679621258	-0.007363093606572024	0.002954250485109939
0.0119570042404107	-0.004488296278607827	-0.004073188163077732	0.009070042562295577
0.01562266543289951	-0.002559980970963794	-0.007653330954294069	0.007913646713152173
0.01105803988772569	-0.001196184732912454	-0.003900435051784376	-0.001844828614647931
0.003863527496670021	0.000311636545001886	-0.001209058044974131	-0.004179725833355002
0.004125598191504177	0.004448467203440349	-0.004291584457690269	0.006755331826102487
0.01097591129881406	0.006288484540314208	-0.003484501691226485	0.01245416992010859
-0.01454253550960084	0.001702087411468634	-0.002925435059684337	0.01104181618218278
-0.01434110820885779	0.002429470483972224	-0.001020064301528926	0.008686806547006633
-0.001987301230573235	0.00434031688039956	-0.0008406695452154885	0.006115529793223044
0.003322383723986472	0.006054372086497818	0.001957056947934155	-0.004327116070361715
0.001043255953316628	0.01088288678367681	0.0004211177183098149	-0.0006489169193430727
0.0009460453811673082	0.01118730632798585	-0.002725939104588977	-0.01040677356492804
-0.001462364388400195	0.01145569095605477	-0.009651277496606237	-0.02677140085037132
-0.003952271507710782	0.013558197643301	-0.01078364167319036	-0.004864167444032382
-0.03170609669850394	0.001906420324570606	-0.007218538296960182	-0.001453600828591162
-0.04268745610092501	0.003715800173261125	-0.01193408916603756	-0.01339867125559081
-0.05122495463118701	0.004813402865911198	-0.008370647493864498	-0.007426554007453168
-0.01655906600758838	0.005043069735710973	-0.002456001631357902	-0.002753488633990058
-0.002245401326715484	0.005877075461288487	0.002066013314261058	-0.003475058397279758
-0.0106046996731983	0.006434723819778759	0.002892355560427974	-0.0001679916601759796
-0.0001994156209149687	0.007279905884679196	0.001092328540375556	0.002987748296363704
0.008993427487072455	0.005432998700756406	-0.0008554134203690672	0.002406675746848351
0.0146217609576949	0.007267885478374275	0.0009067380256863387	0.003407412425644346
0.01314516727816209	0.008526141470314297	-0.003452521460942845	0.003712559337121667
0.01600180657848882	0.007383908229380563	0.003483233866664509	-0.0002679956128665642
0.003883292164051112	0.008288175738051001	0.002274861728584282	0.002502838875479562
0.005455979168071039	0.005274533874499309	-0.0008506920093859086	0.001983083296425216
0.006306124045980411	0.004319511804423862	-0.002811655938167981	-0.0003919601921375828
0.005360885755379503	0.007298001321931672	0.0005397795693261335	-0.0001413549755342429
0.008253364167907562	0.005907274234352013	-0.005865860783150421	-0.003729988299062305
0.004358986157608506	0.008128281003170231	0.0004363131047915618	0.0001373043294181183
0.008787128438273083	0.01361763701180043	-0.001712846176886438	0.001610240520552503
0.008775916808139474	0.008386925370796959	-0.00575328303657165	0.004357567974922507
0.01031845145230381	0.005864051139391631	-0.009493968272938651	-0.002843932174077503
0.0168571353397599	0.002189947153928124	-0.00795306305854423	-7.440300139192743e-05
0.01304714742644872	-0.001952251540394484	-0.001988539952726761	0.008168269917528058
0.01421903624403344	-0.002615278797577992	0.004186339020520088	0.002277368986797094
0.01307456398749055	-0.00867602521649102	0.001155526615532798	-0.001008404865701445
0.01347295744685327	-0.01556367641265909	0.002536074607114116	0.001712954983962131
0.01405260397982941	-0.01457541899392656	0.003692336637024128	0.002435382932224241
0.006544069388365223	-0.008019798186527658	0.00312180090447736	0.006692732415801321
0.005384776580794148	-0.002224464431704302	0.005120018579393818	0.005229734676448185
0.006212766595271884	0.002520859379534959	0.001918147747517694	0.002333329262539251
0.004469810165011037	-0.001199200022818925	0.004546475298079511	-0.002155037731173326
-0.02132205501651239	-0.000207101074087169	0.004232242807430405	-0.003782618377169003
-0.02217508094026785	-0.0004944710616722854	0.005940493735037153	0.002764344698200366
-0.006386412760941738	-0.0001203812231648808	0.005998285198352325	0.00265308112881212
0.00308201201338291	0.005971224629354856	0.0006287821494442537	0.0005493632675690869
0.005184473403212675	0.003928491061996863	-0.007296698757978505	0.002445569653535071
0.001496869960222267	0.004548449126119857	-0.007230885688205022	-0.00049039633498367
0.002949171830360608	0.001376038141659897	-0.002792376443778903	-7.980847138838124e-05
0.001014566972708738	-0.001854310562756468	-0.001965311711298594	0.003865387950518026
-0.002435210940336811	-0.001565713061884954	0.002581934869105652	0.00375928552928785
0.004291512207190216	0.001144677195963308	5.889990863026446e-05	0.000229380717699318
0.0005843019447226861	0.002202544920036783	0.004968778740821132	-0.008803219977737914
-2.135886748759496e-05	0.002600101865266909	0.006765232733295814	-0.002658456470863991
-0.0005678062486556831	0.001163883826621127	0.006186435785057676	-0.003423909033001441
0.005376481053969847	-0.002386750035757698	0.008607761369928024	-0.005386224972190671
-0.001119222325931978	-0.004449871037892867	0.009575528673683019	-0.002451726880493545
-0.001863048854532334	-0.00740058481211324	0.007826220952904587	-0.003079321398418506
-0.0002834433227439796	-0.01066485136526485	0.007778119332553165	0.001350899660024936
0.002190704970121184	-0.008191002110209202	0.01126056179994131	0.000645871226753228
0.0004853061853153447	-0.00842601636305375	0.009669089606714054	-0.0002217667869956808
1.192452699598007e-05	-0.01108876520935138	0.001987784174840042	0.008573974826539111
-0.0006788828655477724	-0.009356043350848713	-2.692968950889543e-05	0.007420246551937095
-0.001173646530651218	-0.00522102284051995	-0.004458522865151764	0.002245323749935469
0.005100106288844457	-0.001716901278228135	-0.002054724058349447	0.004715570524384751
-0.00195190339895976	-0.008232258252736633	-0.002049093654210715	0.03045706281661521
-0.005313917080229352	-0.01265853313764493	0.003438026966681359	0.01942325018559891
-0.005502262856535203	-0.009753417498211967	-0.001104502799125221	-0.000600810050514706
-0.01092568407887733	-0.004100466945612123	-0.004828855211460776	0.007146365997816788
-0.002850854494217127	-0.004593108692264421	4.406385436893463e-06	-0.003693110149384875
-0.001965260957791166	-0.008533928338522349	-0.0005666140618024433	-0.02185458007791139
-0.01193422012515357	-0.006369135508373419	-0.0009925679366177304	-0.01499688599098782
-0.01639033198364709	0.0004930949180358761	0.0003312328335809677	-0.01337055698410179
-0.01278897757446775	0.02843811900583108	0.002061923880124309	-0.02562062173659777
-0.01246183266994777	0.03527709734168936	-0.004802818896027706	-0.02392901021276771
-0.006157080872798829	0.0272158876470743	0.0001421515811531866	-0.01305367394786218
-0.001872714119889783	0.0093232805754926	0.002636509294599582	-0.008125673858866164
0.000831728870003447	-0.003879270525473673	-0.001036382652924916	-0.007532434643340214
-0.009323416013931531	-0.004037953738915867	-0.00417821415482992	-0.002749981344229609
-0.002325142218601541	-0.01055820595981518	-0.005488422585137247	0.002466642625734686
-0.00550937102236391	-0.00717719788212859	-0.000906392560304134	-0.001164807173214529
-0.004713634993391829	-0.007254568899614074	0.001232961600614531	0.001073540189811344
-0.006166406793253006	-0.00744673510357317	-0.001998038011692336	0.003934426987954388
-0.006513049804004598	-0.01022763167953925	-0.004025060607713637	0.003921414269044022
-0.004138081015563263	-0.006351162585273068	0.0008675062394335102	0.003064807694069388
-0.00127920976479169	-0.002852763620966888	0.002003026214720324	0.00116886504841956
-0.003723425550116628	-0.0001442508978494461	0.005454185130678664	0.001070477668814083
0.001642945599203758	0.004681832721385883	0.00128351988777889	-1.690512930158409e-05
0.002246815669810494	0.01017578448709406	0.001970726434887856	0.001743880125893764
0.005614946412185829	0.01029135768193904	0.005336827294612901	-0.002317586690634458
0.01017548362049859	0.01218649096163239	0.003720198985158195	0.003936158421882701
0.01440511417220754	0.009908397467579851	0.009044973816414274	0.008652385536112004
0.01376000347543458	0.003368605899419815	0.00547817673076082	0.00523741946351671
0.01445092367622525	0.007654719307131147	0.002243793332709107	0.003024223241114275
0.01202831119561433	0.003717135932631387	0.00197692718465654	0.004825386368359803
0.01920640736950131	0.002234801084966458	0.0001899411345948	0.009414886466045935
0.01657535231036328	-0.002691688839665082	-0.007201790225893268	0.01178542463526576
0.01813708944779577	-0.004898252250473703	-0.007465770180187699	0.007823659823999447
0.01256742372308202	-0.004775233908568167	-0.01206726531003453	0.001349669847347988
-0.000705903517279414	-0.00392470929002203	-0.01607792111501676	-0.002629102577193671
-0.004367398550504239	-0.005195558710721231	-0.01314374793846517	0.003539479857347761
-0.01052799536742114	-0.01197423425089866	-0.005250239990529183	-0.00240254488841658
-0.01816691915672157	-0.01225898443964792	-0.007455183231755954	-0.003468545631514532
-0.01589878503801152	-0.01245066992632818	-0.006243848001052848	-0.006700567926342616
-0.03272154136402126	-0.01709996931335904	0.0004626304803617372	-0.003908865928223292
-0.03229472380029576	-0.02713249926545452	-0.004221606910705679	-0.003544323389226509
-0.02338943565150693	-0.02464789373587683	-0.002214898192799067	-0.005871985644137915
-0.01356275838825917	-0.0198749715374588	-2.881996432874962e-05	-0.006818626724452609
-0.01661060890096519	-0.01710282649278193	0.003742289382867966	-0.004023520440291518
-0.02017423069531722	-0.01342932353218426	0.002669825090854529	-0.002400649042217347
-0.01522186151610001	-0.007786434518007019	0.004096180856510401	-0.001080957977590236
-0.006194235660108484	0.003099393197082233	0.0007501384998956604	0.001354019098299052
0.0008089336349265419	0.006650740908215744	-0.00277596048363124	-0.004847948374825157
0.009449626823983519	0.007203853734309295	0.0005986393426275354	0.00240870867774432
0.01447508372686911	0.007447417275832794	0.0002988569337999501	0.005819375047847524
0.02133985179510108	0.007656159385398847	-0.00449957065299281	0.005322446217630381
0.01544945497509989	0.01163315025971058	-0.01071981386588081	0.00502606432468857
0.01427173828939468	0.008971952878293431	-0.01010761791106448	0.007591376145854738
0.01121307806163283	0.01361190712016357	-0.004390306287469931	0.00267641646766259
0.01251401002200839	0.01735942481305765	0.001549279448397876	0.006237134350074927
0.01191137701080823	0.02185626302186757	0.006675300969245735	0.005811893448572704
0.01628637738457554	0.01938074795688564	0.002259795921079304	0.006111485643003807
0.01453616393677955	0.01814868467557718	0.003226138034118554	0.001510757682465456
0.008832579839129455	0.02215429275719564	0.006636444721894696	0.003385596420791227
0.01625112689019359	0.02175977829740685	0.005524325127374893	0.0003372307240443714
0.01622479405517775	0.02372515686822049	0.008364857212342928	0.00125489170801513
0.01360420839448219	0.01850799509557452	0.005990779654871051	0.00238666182229751
0.01283754779267571	0.00616971573921199	0.006317750805843422	-0.00267424187745369
0.01138112115592573	0.00488863968954732	0.0016478271224646	-0.0009163416625575422
0.01008990286874354	0.001017765478310173	-0.002396962505681076	0.0001292225880262138
0.01078532395887642	-0.002378580780551764	-0.001590182092349016	-0.005674299902866252
0.0005878020666762851	-0.002413180442836819	-0.002223620150231878	-0.003269625956844918
-0.004899462817506159	-0.00392766737430175	-0.003468337889441459	-0.00413306661605057
-0.006338174548871447	-0.005918546890648088	-0.008045785833021301	-0.002280764352368131
-0.0003193285338003889	-0.006505049463489197	-0.003300699971155983	-0.004153098577663341
-0.0001357470730032727	-0.01090329828482102	0.0004160373637619375	-0.006424833668009802
0.002294824406825466	-0.01438944627618507	0.001887783212149215	0.008976426208479818
-0.001902239939470096	-0.01402669209033362	0.002786418570201823	0.01874199922523252
0.003643537938802182	-0.009286850589508755	0.00491929347486126	0.005570616421215733
-0.003194372658423787	-0.003274548924912273	0.008984149964872489	-0.004499690158356918
-0.01225294615153624	-0.003817021435767157	0.00592754062698026	0.006580542769379015
-0.01810261290813538	-0.001440186939466585	0.006363561731512805	0.01369391114193298
-0.007563566738862367	-0.00686543203109601	0.003829737578811872	-0.0008279415177276687
-0.0009120830858421992	-0.009455767673779033	0.007794520988943467	-0.00588543246792523
-0.02215719622419792	-0.005021776979679975	0.003423784906959818	-0.006582797909748874
-0.03719973716093901	-0.002675069101122331	0.0007173600488171241	-0.01402139801762495
-0.004429983637312789	-0.0001284192657322138	0.001249032824341172	-0.0222903489643638
-0.001283249142585254	-0.0005836209676535231	0.003039225105011574	-0.00971084784071664
-0.004477039647311664	0.001813673401690936	-0.0008051482241954518	-0.001425062894770263
-0.007558535716375529	2.432537209665532e-06	0.0004044125891847988	0.000103571616513889
-0.03849382366721694	-0.004533445013449692	-0.0006746124675588391	0.001162551983617734
-0.02674481611229612	-0.0003650761508943882	-0.001620733333268875	0.003209646792846772
-0.0003992226860661264	0.004320806407811405	-0.002046955675128097	0.005251890342715388
0.006762923192162918	0.0090922187700296	-0.001213413390606477	0.00343668694406856
0.006380483331215589	0.009000928999242765	0.002463673707848659	-0.001936160084931055
0.003951300602064762	0.003954573468274086	-0.002776566588924106	-0.005305999907052532
0.006051963349025706	0.005826930550829992	0.0001012821882305734	-0.00617213673550731
0.01774919881089924	0.007347929546976543	-0.001454429083999289	-0.005610975074664395
0.01513987933025785	0.01115314572000455	-0.0003033084312558552	-0.003703383363512935
0.01250421108805226	0.01425246653628319	9.970672468813244e-05	-0.002186775405229761
0.01402257437701146	0.009068472679057287	-0.004174755172362855	0.003527708635041603
0.00636711541071207	0.005736695110312955	-0.002641157659891062	0.005230142332480579
-0.002511947753810997	0.002512590544849759	-0.002283428325429845	0.00652543964660046
0.006607937923501056	0.002521575183826323	-0.002006253969797417	0.0002588456438850973
0.01506764603689386	0.001958399197445978	-0.003464591177931775	0.005860647688994918
0.02032533445976302	0.003815001240235723	-0.005245608520033351	0.007852023919516431
0.01487735302559315	-0.004553115640208677	-0.007491829728866967	0.000633004146965381
0.008290974598744732	-0.01260650343280318	-0.008764441451695471	-0.006738721274667875
0.006033188174621206	-0.01088624136951288	-0.005500429504250511	-0.007031540711155663
0.003793250092821283	-0.008484577040189855	0.0007252925856927088	-0.01013056560066709
-0.00437101247541661	-0.005619309243120583	-0.002865313011179087	-0.007900796287231573
-0.004806030424644349	-0.005918399667953095	-0.002501489716981779	0.003882496143154592
-0.01442717392119332	-0.005193789478839247	0.001137028562993346	0.007136828865047278
-0.01277288105597338	-0.00590180063624728	0.00379308788074931	-0.003311171946449986
-0.004650616714731989	-0.01274857582507762	0.003078217052605364	-0.004141973536954481
-0.001700906404857772	-0.01451328664548983	0.002463725444815257	-0.004848131786389371
-0.0005115172152858275	-0.01517015125777421	0.008330253919844727	-0.001655603529267412
-0.0004936852724678774	-0.01131734795435091	0.004761618617302179	0.007770302938028101
-0.001595854789955368	-0.01149332664113539	0.005444111026783695	0.005049738235413444
0.0004860996817067198	-0.008496473257506918	-0.003063778167857572	0.001800259982212737
0.002647316508540078	-0.004180060701264024	-0.01143114568900446	-0.0002369652898917822
0.0009634950046631457	0.0002778131274831542	-0.006831654531737968	0.005987355012883314
0.002575547984697544	-0.0057612044870845	-0.004399426659871817	0.01054162671538458
-0.01541912359318291	-0.01425260943190605	0.003690009551371837	0.007441884869572467
-0.01805127474336809	-0.02194951070495985	-0.001013703743288464	0.005173022331777507
-0.01262460318832426	-0.02159658026660456	-0.0002182618335005225	0.005580244147543345
-0.008469231672196507	-0.01029787248881526	0.002605281652084031	0.001639063897360643
-0.00803796645437416	-0.008944453333710464	0.003066505470754047	-0.004677209901707904
-0.007556152004472358	-0.003303184603783042	0.00547882870402615	-0.002601916095748038
-0.006275741522174479	0.001305409284944663	0.005082762233172817	-0.008348166802213855
0.0009633099398693113	0.00214297935582423	0.006979548055689202	-0.007498513104227931
0.007482718906439222	0.02755437537899341	0.004145511847264769	-0.007223191955205233
0.01079193824748542	0.04107715553129746	-0.0005847853681569826	-0.003610975811676234
0.009411451466163892	0.03429578074898167	-0.001395747147229028	-0.005383857689516454
0.01034496020712388	0.02515367815896531	0.003791515436396204	0.007370383146003976
0.008331807947171989	0.01708416137510897	0.007234112394337648	0.01829772756402142
0.01219324692672642	0.0147643230899306	-0.002369373116918307	-0.00205741353076133
0.009409700075776545	0.01304584189540116	-0.005624706599130579	-0.00996555861094159
0.001335635077855247	0.009571043072388402	-0.008247924587122141	-0.004856455887636227
-0.005333374772123459	0.01180499642351885	-0.004994318340003884	0.006958170386796245
-0.0008148823998073802	0.01078103735075507	-0.005247367128194961	0.003532046859470768
-0.004641697752660535	0.004535364843192453	-0.003023280516870576	0.001478122620312645
-0.0007391125210033966	0.001482771840459339	-0.001563459960361921	0.007617337423390579
-0.002689506652384586	-0.005544240245697488	0.004610415588238613	0.01151704256405151
-0.001880710766653773	-0.01020093323220183	0.005428516366573603	0.003061708772498
-0.002932415385267656	-0.01088189898897704	0.007091589338787503	-0.001694792778087471
0.002091395564123653	-0.007931140360031714	0.003968971416740737	0.0009465513617712705
0.003287679754202718	-0.004991566498320943	0.008570818209888038	-0.02168600574777241
-3.787001635389953e-05	-0.0003467102769121353	0.01058630918684734	-0.02342624069846829
-0.005859473778060877	0.0007737567155478323	0.01278197162850951	-0.01386684196786642
-0.001123421916538082	0.001652391420751608	0.006107244772389087	-0.00423167843256385
-0.003490521407590489	0.001167581983306861	0.003102504547483573	-0.002823522804964495
-0.008227703015557104	0.003066805022657378	0.003415407198366529	-0.001698247153361177
-0.003457221062445924	0.0005348605384823659	-0.00384733322274683	-0.0008017464896878164
-0.01025071883747433	-0.003202468094198882	-0.006083013083485522	-0.0002195341656708711
-0.0139743809630016	-0.01117525406336936	-0.006639650689516373	-0.004063363826048678
-0.01805414166750112	-0.0117191768570969	-0.01001594782700654	0.006058647406129009
-0.0056393681246613	-0.002958917404133795	-0.004348277211984784	0.003098019999406154
0.009026517656406363	0.002034568784591487	-0.003428530973239196	-0.0002994534336254243
0.009555465657977782	0.0006476142681339334	-0.0002589602236139094	0.003569572960039524
0.009901519891447035	-0.003938406685354785	-0.001257917286389367	0.002425328037819349
0.01122480630173567	-0.009060101612000852	-0.0003845264964386908	0.0009564103964207356
0.009871024176033657	-0.008416281003002903	0.002358615899251237	0.007776106531684588
0.01465499881412861	-0.007664282787013035	-0.001323754793821604	0.005505117273382724
0.01327756489695903	-0.004170313329308115	-0.002290719262458988	0.0004152584002640802
0.01597254614700802	-0.00549827443364736	-0.002116811209744186	0.004161164740049943
0.02108570126644975	-0.0006341272058158736	-0.003997141410219874	0.008028769482936165
0.01482843031014833	0.001943018339538667	-0.006796964731454898	0.007892653287336114
0.01476951047549195	0.002412815098633175	-0.00496545056341045	0.008061318227691225
0.0153697287983016	0.002150882145597239	-0.005096321842939938	0.007488315045801705
0.009762998450823526	0.0006841869576476117	-0.003543683673747158	0.006407278750134796
0.002551583961732583	0.006670735802150348	-0.003650803646810131	0.00697167974535535
-0.00450105491544715	0.01495935503213288	-0.002577632851583212	0.003073577839734895
-0.02047769375034303	0.01422240690973201	-0.0001133964613274822	0.005672441351749443
-0.04735264466768632	0.01165227130805119	-0.007599685877172703	0.004333399275261526
-0.05592401061804881	0.009822736968940001	-0.004680471752538173	0.0006939489657766284
-0.03473997928379956	0.01392755996174837	-0.001457310782511488	-0.003036510207041171
-0.009704986985559378	0.01359287615191533	0.0001501018739554759	-0.005610152825497295
-5.105584589272147e-05	0.01051876007636552	-0.0007531097141422926	-0.005375305229279537
-0.01102050314056868	0.001304518166952075	0.004988439116574137	-0.005339507657403272
-0.02791351687974525	-0.01662251535406183	0.003171071943915256	-0.002406686301734663
-0.02182413800452061	-0.02667605674298769	0.0007606504962960701	0.002715753600061776
-0.01183277923429524	-0.02413669388137531	0.006247295910602337	0.02481906356085685
-0.00515606917389113	-0.01670822005968143	-0.0006463414578073891	-0.0008113775533198296
0.00820678056206775	-0.0100250944526903	-0.005747117912156509	-0.01168083016678278
0.01294497161898161	-0.007775630715821356	-0.003569980596061885	-0.001824982323621536
0.01866771806381923	-0.006600311227195085	-0.00615213403403162	-0.002253962441271197
0.01900524813303441	-0.008929541098676448	0.0004449555057027138	0.01559407604184776
0.02796458302332027	-0.0042076773784031	0.001752208228722932	0.01007724920560202
0.01457197613601391	-0.004925456046310296	0.003070205617387156	0.006550113516627778
-0.004061597201616063	-0.01088765167485571	0.005793185366499302	1.410820014776482e-05
0.009141324019847918	-0.005821826284240352	0.004316431287203374	-0.0115103418543858
-0.0009733533247385353	-0.003725388402768612	0.00601674821375364	-0.00989779013229581
-0.03141505890628186	-0.002999363858888317	0.007588901989541588	-0.01230694514302363
-0.01450087042283345	0.001431415311363799	0.003252140092714725	-0.01996844717885389
-0.02201119745549081	0.007951911413510426	1.849617431326419e-05	-0.01573488383313722
-0.01239045179644217	0.00221719803728921	-0.004834430670652265	-0.0103894454290043
0.0003311919992183559	0.007724559134496126	-0.008113725249604542	-0.00570256707835912
0.01288364722019879	0.01447077257479667	-0.005072684768853246	-0.00731481710879757
0.02465512702162308	0.01930013977492917	-0.003520930566305571	-0.00532585374343538
0.02342727657530464	0.01542319169002875	-0.001178315690640567	-0.002807627488426649
0.01757400871274698	0.01143586873496818	-0.004490478451786776	0.00393120424229003
0.01763282073265075	0.01042307487547582	-0.0008438532400486822	0.003616406463814518
0.01740492788087031	0.005681556838401109	0.002354499165244841	0.01062383572415
0.01010905109530056	0.005623718884043206	0.001770691731947285	0.009047236491868471
-0.0002573929961061633	0.005592206894634446	-0.0005319261825172187	0.001446100249922838
-0.01045809929913448	0.0006698588090150697	0.004932454239517371	-0.001714672615514984
-0.01117386991762006	-0.0006061961618974259	0.001143890726215446	0.0002274065389926082
0.002647779902613471	-0.005916785686927896	0.003000824205250106	0.001515448842658988
0.01155463672362413	-0.002089694923828734	0.003857536832339968	-0.002021577023727882
0.01092264837021191	-0.002131547510667607	0.002162459065634236	0.005013390455962017
0.01030655154524441	-0.003192599467403216	-8.766338424585478e-05	0.00537538476130825
0.01213582982216697	-0.008245925880850161	0.002900546454611118	0.007782330812313515
0.0113646774501712	-0.01083666594179088	0.006933334553110906	0.004888140244622285
0.01189799610170537	-0.005290213911353461	0.004228876212171884	-0.001636141215196031
0.009939426585612239	-0.003080084504445945	0.005294003624179018	-0.01240604476496127
0.009784038902637073	-0.0002380253354381904	0.008033210327822393	-0.007068761970924401
0.006202492926965448	0.00689441808327523	0.004507456892186652	-0.007930764300599132
0.01110501307024371	0.008860388958562709	0.00840163494240828	-0.006248659705028329
0.006867856336956107	0.01126156523335371	0.008111706248134044	-0.008621549797984275
0.005822273860051098	0.02060011236003093	0.006949822716392238	-0.005668439992994686
0.0008638988373216288	0.02897710209121926	0.002484292659871371	-0.005519549406638548
-0.004386138005050286	0.002592517023322904	0.0009126239156111571	-0.0002911294422728166
-0.0008211153726470064	0.001765493856790742	-0.0008833396826835779	-0.006787593149495776
-0.0003650431588338776	-0.003174834511274031	0.00195631598919762	3.620066536105659e-05
-0.00353211743269402	-0.006717488688970276	-0.006759878410437376	-0.002860147638965905
-0.004837575841877967	-0.005423150674086391	-0.0137024974010395	0.002296953468826139
-0.007725054429354074	-0.009981674149240003	-0.0062973841865532	0.003718484683506568
-0.007337208069584791	-0.006375786954000765	-0.0005126436566424226	0.009140392647881884
-0.01100535158197051	-0.004946559167624923	0.001198601079640274	0.02028845571812451
-0.00661771169366556	-0.01092894362713074	-0.0003301088001139568	0.00452986316312444
-0.005901056438395157	-0.01242722911685866	-0.001902488820487898	-0.0007859653423577417
-0.001448605800387754	-0.01029306557080035	0.0009973134191910132	0.006628887717052794
-0.0002234502659839484	-0.003489829701207682	-0.001715058974214072	0.006126979062938741
0.0003453814124300972	-0.0002687973319570157	0.002566872271147582	0.001221101322450709
0.001353395678423501	0.003776848212907539	0.003808097780664779	0.006222081785627749
0.003282385409996542	0.005754741038534772	0.006245171477377103	0.002986728061366815
-0.002481009959923588	0.002830386322540324	0.003230060086935608	2.061356224920225e-05
-0.003233851746259963	0.001125929977814889	-8.011366201709906e-05	0.00460700409551436
-0.004756653455937437	-0.0009198265100581212	-0.003807672028857078	-0.009143024217312641
-0.003408955624723304	-0.003915613743717877	-0.005005445270114827	-0.01975469020184091
0.0002447193821539002	-0.005246685779775467	-0.005198529337112778	-0.009011617246571608
-0.001429702306970018	-0.002290374632536851	-0.004096275440393793	-0.004577420411196947
-0.009088580470896271	-0.007121747874456233	-0.004645608455084408	-0.002914116183664702
-0.003525635763180942	-0.00386963099164528	-0.004117952456412181	-0.003602895977645854
-0.00033149403548818	0.002934484929656843	0.0001381244556036254	-0.002199268992711898
0.00524451571301294	0.001233914434541195	-0.001877794189841268	0.003387185027115805
-0.01003018625712035	-0.001838022032990047	-0.0003745165137667711	0.006928755273466336
-0.01828432852504531	-0.005074320209615335	0.002328022593156565	0.006874911239115234
-0.01351269352101249	-0.003772325968191144	0.00572548091928141	0.006263676986398637
-0.01383779327133025	-0.003439297341723979	0.003479309858647256	0.01127613282175963
-0.006919270140758371	-0.005041371344422239	0.008381838647107365	0.0054575303568678
-0.005745321282338842	-0.0078777996645772	0.003087324086040642	0.0002834155572166986
0.00252651519325118	-0.003891870737854092	0.004171077697355348	-0.001190954900094771
-0.0006254743190721593	0.001030376355411392	0.001015296931727427	0.005581100181563964
-0.0008397842050644386	-0.0004869509830968477	-0.005627984310247745	0.001802063095574091
-0.00566723443720328	0.003377194757195331	-0.001369851043677044	0.001923444287537834
-0.001690646253989943	0.00384078989304294	-0.007307437893851124	0.0002781457931851916
0.003356215395391827	0.0025228273614304	-0.008653090582973576	-0.003561820196295945
0.0003930731538638662	0.001176304824552557	-0.007922265323812743	-0.001792866509510329
-0.0007380124080378903	0.003648529331002987	-0.007737607058206162	0.0005326979324142853
-0.002363070069530997	-0.0004820790979099502	-0.008815898973694402	0.007332983374724787
-0.004408565903830095	-0.006139533038345939	-0.008610298891020447	0.01040782420972897
-0.004368822589697118	-0.01021085665447938	-0.00350077079795059	0.007642368443197745
-0.0002306142246324312	0.006287590030284522	-0.002373445194882279	-0.0007314486845047747
0.003629117660549757	0.01076249376835381	-0.003036477186980719	0.0004822662319165818
0.01004214812240807	0.002969420998943395	0.002220594468157921	-0.001386172443282081
0.005321218763700856	-0.003930590796564076	0.003989146683352534	-0.002867369134904225
0.004862616690065547	0.001621824982105142	-0.003029211833049148	-0.005801621293477362
0.002635188734263011	-0.001084348823653961	-0.003484553024654511	-0.005734555199867899
0.004440895778883881	0.001176440638038727	0.001503199237824002	0.003743623456291484
0.002115031120615749	-0.002536061564038556	0.0005649813047735759	0.004045230355359377
0.00688719294328885	-0.001820472092865489	0.002179298723389123	0.003566647165687884
0.003028736411347488	-0.005405619453803943	0.00889357122250654	0.0002472558123000936
-0.01737369570875533	-0.01023692433972996	0.003320014347140882	1.152822912600025e-05
-0.03446536470182206	-0.013589370556437	-0.0004283841412899277	-0.006867448322393989
-0.01971145032448817	-0.01227630850217545	-0.003941513108690668	-0.001434242145561974
-0.004011454791456055	-0.00950131529127708	-0.005663563902001382	0.0002674911151750507
-0.01368325853801619	-0.007622564913736621	-0.002685419413171916	-0.001655972042923168
-0.02058050375321983	-0.004673285659111434	-0.006669188058677545	-0.00347699836369078
-0.00703827626848067	-0.005185321466951799	-0.004662288587310113	-0.007051512539852167
-0.003338753028550427	-0.003129894704018691	-0.0004946712602271379	-0.003320613041198541
-0.004619996145241653	-0.001368748906882095	0.0134142768078999	0.004640796168815743
0.007622195202769402	0.009906965027964783	0.007037230355807618	0.003557232917451681
0.02029564417999314	0.007916619900966357	0.003002319329604568	-0.001892461624754852
0.02085186991733315	0.01836853516970492	-0.001319109334496197	-0.007808415993888299
0.01690757059944899	0.01651463194158525	-0.0005170992458154432	-0.006631359943132844
0.01348721522750381	0.009642971474914405	0.006336250805066119	-0.00416288343429411
0.01031846781492025	0.01094654237267501	0.002223006269554026	-0.006145017373924319
-0.001646842003811307	0.01385517766417991	0.003233952071717661	-0.002255676322272647
-0.02190485671005525	0.009771991807421217	0.00595828464015093	0.00317843382760592
-0.03113745665347075	0.003559177969295929	0.002457612880262947	0.009276464003853029
-0.01824488936610319	-0.0004192073233304403	0.00192452422423498	0.02615019389860991
0.005550713463180553	-1.718114984394336e-05	-0.004087409451465531	0.007778426833437138
0.01262519156858303	0.001746431368634849	-0.01472486226418423	-0.005000135180476623
0.009823393288343625	0.003598813633584501	-0.01725947162359244	-0.004904000045904299
0.01101927776765111	0.00672427307480237	-0.007909386344662379	-0.005971955834368323
0.01418970430208499	0.007142550103011213	0.0007301031465605592	-0.007682227657345546
0.01778472931986737	0.01798509638950425	0.002408809447776454	0.00272461989985265
0.02410913707646478	0.01269040777734144	0.005364912096189226	0.00256962461878786
0.01181937084819558	0.01407432802853401	0.002009463759511726	-0.0008737694833085503
-0.01288493807108739	0.01978052113437763	0.004015458428539383	0.006530238445598448
0.005268449761175087	0.01364763173519397	0.003765296254811882	0.006388306201071464
0.01814859829904812	0.01201168895187875	0.003323897686067915	-0.001577557049207482
0.016861399431047	0.01217606713753426	0.006393295506099367	-0.005255314286959858
0.007889996505812714	0.004546005665951377	0.004724674956768255	-0.007171787999147393
0.008806099539962319	-0.001244167030720935	0.003872850677523937	-0.01818594536588367
0.01883438726820268	-0.007853177949545539	0.006130534463926838	-0.01899111346093416
0.02021973861335888	-0.009383657285326962	0.002140586821802809	-0.01574077276091084
0.01402753636807704	-0.01111442673607002	-0.003363503368102194	-0.008273883398247779
0.01202459247399995	-0.01719450225858314	-0.00340597505576576	-0.007846200314687808
0.0127505276127795	-0.01646249837131198	-0.0010408745819352	-0.003105420252564814
0.01401027908713854	-0.007894032077116768	-0.0001381152661028641	-7.642853551474363e-05
0.01257875212002059	0.00358162710558947	0.002263669353867649	0.004485615006642009
0.007494557901191442	0.00203960244141394	0.0003558376121810846	0.009348483729109233
-0.01738346065541936	0.003111916559746753	0.002812822701401346	0.005288519753523653
-0.01763471576743947	0.005858614325215261	0.002709193075675926	0.004476417119371934
-0.01154394002459194	0.005099392868652733	0.005659070877865761	-0.00131770691989749
-0.005843191569104819	-0.001214722517375087	0.004373247397993245	0.008001435854560006
0.0009323100498457775	0.001607041924778082	0.01130357987440394	0.005007107910878625
0.006494740712182593	0.002394003366980136	0.008337546634809952	0.001818350722706415
-0.0001375447932759342	0.0006747503125089712	0.003907507097466931	0.0009829660127582483
-0.00140796944379102	0.0001714952108245819	-0.001363332007753693	-0.002300264654898228
-0.00801865055059826	-0.004398741736740954	0.00113443479122651	-3.112846616223572e-05
-0.009448982530730168	-0.006206144160222309	-0.006321099902140838	-0.001042662002187855
-0.0152301214513974	-0.01068552549102976	-0.008377396888173277	0.006383346173431975
-0.01666988980016793	-0.01348824046884415	-0.006279360835894266	0.004191869605288091
-0.0196705329688284	-0.01763256804881604	-0.001446448638782462	0.002446825875301201
-0.009767699374539987	-0.02356181555914234	-0.001423138592827343	0.001036988992247102
-0.008325149088543546	-0.01970300806750601	-0.004301860193538398	-0.0007398541592838412
-0.007641556434123259	-0.0180215482774485	0.0006775869421883585	-0.004679183357384395
-0.00137349506211237	-0.01338045687632604	-0.004230815776267199	0.0001225248746772795
-0.002220301200653472	-0.007861004838985955	-0.001013764687528617	-0.002310634590557127
0.001089184109294876	0.000256309336515602	-0.000219764675531812	-0.001845605451302207
0.001376899289061139	0.002542638397591457	0.004386033371471234	0.00434725106915876
-0.01030632266622274	0.001555779114408289	0.00385533203937935	0.002645852083170552
-0.006229432887666751	0.001371275743553168	0.000714876341154072	-0.003643774283293878
-0.005536870374679695	0.008408328845224834	0.001630523367495324	0.002268277333357541
0.0005513899085320919	0.006349177627848428	0.003324667914475263	0.001732182297641998
0.002134587801869378	0.003832848200040788	0.00666607818085927	0.004808182184108623
0.002672305505732956	-0.001869594210364541	-0.0007838938229615198	0.00711202736015903
-0.002950624820743234	-0.005850900662047155	0.002155953579070069	0.005462760120232277
-0.007725496450816007	-0.006979896802211583	-0.002384752060137821	0.005564955029789463
-0.01062569210501018	-0.01281505015828547	-0.002078110938040533	0.005908696099895306
-0.01061608813240062	-0.0115632927346086	-0.001578585423147142	0.009463066932708625
0.005194397878268947	0.002939116237357725	-0.004881708731904046	0.0005067231128566961
0.0065533841634791	0.000857369603196717	-0.005670963672274339	0.001721796923055521
0.007091035278846513	0.001429075776450485	-0.003795331417001313	0.004170017317871587
0.007472500527746638	0.01069438858040469	-0.0025322208259363	-0.008502868641197536
0.007860349007994349	0.008278433591601768	-0.01015186634580264	0.0003142332750856494
0.00948436929140411	0.00481721056696425	-0.009019863664003015	0.0203912962557879
0.008087075562962627	-0.001158689135321603	-0.006776647024363412	0.001161844028186395
-0.002135603511334588	0.0004804121691670717	-0.002769127233709823	-0.007812722248363758
-0.004857778811869089	0.0005147774738492706	0.002020851333872769	-0.003601642074818695
-0.01336055602597077	0.00528511909024622	-0.001233132606781863	-0.005283283586359246
-0.03316886834084301	0.003493215739382592	0.003185371328152217	0.006146274199746781
0.001095616313575366	0.0005250134190236346	0.007599933788670934	0.007803858364598435
0.001780141798280727	0.003289110849392582	0.007930111255901127	0.01037823872205377
-0.0007290924717468401	0.008399943928819981	0.009111673840458141	0.009368182008943203
-0.0007452445789851057	0.001075864934604449	0.003830533421219954	0.008646169473758212
-0.0010393977720191	0.0005865848391297051	0.002976205235882112	0.003609635077458131
-0.0007091368761674144	-0.0007698351022165197	-0.001032615093959733	-0.00263487189885384
-0.01403494129281438	-5.553160221578627e-05	0.005337330562187074	-0.005689072262901089
-0.0059695417029986	0.01108278906956814	-0.001375251070283902	-0.007746100545730128
0.004351651678152543	0.01165709431555415	-0.002549362519127259	-0.02633745841436358
0.007398865048886399	0.01712836348101919	-0.007641109879619304	-0.02837427087398228
0.01355161458274089	0.01692317390525699	-0.008714793113200288	-0.01494742992675175
0.01720652370403222	0.01230322384895276	-0.002486829724826063	-0.002393335019951199
0.01267278514924164	0.01255223173418928	-0.007169440916156042	-0.00724822083460536
0.0006847994939192847	0.003918076946625042	0.0005197494550949666	-0.008389316847172784
-0.01609664897761287	-0.001476461787333458	0.001322452107718489	-0.001636086224701517
-0.002311060127799247	-0.003123077944486213	0.003469576697294995	-0.008178681846575962
-0.004329811362928427	-0.005159428665854263	0.003428013975546737	-0.00565775483575956
-0.005311269140553543	-0.008807434079435114	0.003571124009092845	-0.002865443138175504
-0.01548198160034167	-0.01243770520981176	0.004612859943420927	-0.00507658811211813
-0.01746778084899457	-0.01369050582021943	0.00313979677552654	-0.0036884528329838
-0.00711388010430119	-0.00711796123123982	0.00147244647414271	-0.001170398757825505
0.003945804106054199	-0.007218995021089954	0.00237918353528776	0.00171909860965051
0.007049071484419842	-0.01033986381909451	-0.004859764696931101	0.0009120714433131368
0.01411455221873334	-0.01082171830500888	-0.005765316347843376	0.00138581876167889
0.01300260669738143	-0.009300184261729114	-0.001843365076394729	0.004278830541321104
0.01898918969131474	-0.006022354254746749	-0.007090307254811364	0.009697240494524211
0.01296193449210064	-0.003583731035135853	-0.005144613771165647	0.001110553248725818
0.008644716592957824	-0.003584697286421863	-0.008025308094617777	0.004555893886931069
0.01251180490544633	-0.001214112266457112	-0.003938454636762784	0.002959469378016686
0.003966165892502411	-0.007002921340951959	-0.001686381425090964	-0.0006641872689042026
-0.0303181054158581	-0.002614302326766797	-0.003659057616065617	0.002817685651764968
-0.02471988599791991	-0.00323118286574328	-0.0005293756787220901	0.001220911470972536
-0.01766244272440229	-0.003190747600990415	0.004582381883188966	0.004081397225719958
-0.01055964461965293	-0.003202645547964723	0.003448560986277925	0.003537806576525397
-0.0033312335811993	0.001261592135574588	0.005122961680190577	0.005346417988884105
0.001444264395239872	0.007253150680992311	0.003204812995716889	0.005977789956606345
0.003341394434390402	0.006520168199632356	0.001176321599672065	0.01027598225992821
0.001273457182128545	-0.002296117052061635	0.001062401750131008	0.005499765531724933
0.001551763555291184	0.0004817159107849927	0.005834648749916132	0.0007816746212704439
0.006003522287233837	-0.001169402149502799	-0.003963880567173046	-0.004913507855568372
0.009724879879174659	0.002973020506332979	-0.0009043234382020598	-0.006482388696985
0.01022018168640237	0.01098650546631921	0.003557209764053928	-0.002776591737575353
0.00745165793572652	0.008839391139772581	0.000715419341057002	-0.001412946119206226
0.01136831845879712	0.007452506898267041	0.002145830455736173	0.0006645142122797977
0.01746499626372704	0.01387661121487243	0.0009958288073805255	0.002267456796342767
0.01615908992213448	0.01207190702209626	0.004275517529723827	0.01157971040119081
0.01435168864236598	0.01125797702998375	0.003223361107241777	0.004797750940796734
0.01387157787170518	-0.0003496948698745806	-0.001759683563966071	-0.005734912150353908
0.008425587149940787	-0.0005784273176658262	0.0004883056957497205	0.000374219956116126
0.007817024038419964	-0.00276481670330334	0.0005649420757599086	0.006507402998119314
0.006622539929889319	-0.002270103532508463	-0.0002237285596705182	-0.002774452778925949
-0.003342431024538389	-0.009503970100586028	0.0008334547794418254	-0.007855670958002096
-0.01083399494522437	-0.00863203987281775	-0.00040794473558328	-0.003908728733013941
-0.0111280619025674	-0.005038726678742469	0.007180578055419246	0.002869477050230928
-0.007718277685325373	0.009962213709726291	0.006694128414750852	0.003719647693003116
-0.005061703435312849	0.0250541398154529	0.006685735413717479	0.01888889023991569
-0.005774325874468996	0.01383161105102451	0.004874106824283411	0.01266049868838437
-0.003571363374679284	-0.000716153193769755	-0.00149134169668405	0.00147376964724817
0.0005275815619623646	0.00317229411020638	0.001572976772247893	0.002313762562963046
0.006336659263997258	-0.0003763945942894122	-0.00184916591722074	0.005762388010812167
0.009366586429644368	-0.001890117660210799	-0.0002829071794643253	0.001623003215416963
0.01570987735180661	-0.0008880032236128347	-0.01007479074540801	0.002173046730578576
0.01465084196337997	-0.006007365907403421	-0.01453378395699416	-0.003618799468332436
0.008699413709016449	0.0007441218900869023	-0.007080389030242408	-0.008352791488757862
0.006933165618234274	0.005914139331842167	-0.003239756610676082	-0.01002520223253773
0.004347370264347995	0.003475575374645577	0.001069236980014224	-0.01159313876640863
-0.00771206766960154	0.003614335203625779	-0.0003953452745419215	-0.008981873508439103
-0.005983411398641486	0.00207759868985743	0.005216495670156742	-0.007208862130511139
0.0006896616150422796	0.001476716700479432	0.008140413295651508	-0.001841832836128535
-0.01058236537566807	0.001917273084472687	0.008424482037975274	-0.004413177353464711
-0.03133112487216733	0.00229307665286946	0.005409208355731354	-0.002490246502188449
-0.02756299309896608	0.000816329019270288	0.005316354101913733	-0.005420210410409802
-0.01233924390997664	-0.0007825055796689046	0.0001600163154283831	0.003128000183513985
-0.005808800043732988	-0.006540590541280785	-0.000148606523549917	0.007262212958668972
0.003029411956862052	-0.003645993551607043	-0.003067862611813721	0.004475307422566762
0.002436068050441924	-0.001766003575435583	-0.003646376748531729	0.007789312504333551
-0.000570214688216542	-0.01222417327248536	-0.004367222544386584	0.003940337089250353
-0.004477646178612108	-0.0100030384789525	-0.003994655660497182	-3.57705963617308e-05
-0.005457748302755192	-0.01181617864602043	-0.00334150850402644	0.002411383529370009
-0.002396134385988429	-0.007389691707801569	-0.0008641288801797648	-0.01236952999016115
0.006905261012274473	-0.008976083704838241	-0.0008597103095813617	-0.0186479887891326
0.002649167143213089	-0.007728278214874599	-0.0001230224867111709	-0.01000521490741556
-0.001890807388709421	-0.006821691762373622	0.0008655178532951482	0.003389433565989441
0.00266469307904149	0.002556758791910052	0.003368387181726428	0.0002809264062789302
0.004439400961800518	0.001540199616951148	0.004172234513607723	-0.001593568903634799
0.005620745379739327	-0.001238094626837329	0.0002015828473906471	-0.002059047189242936
0.003777781612927887	-0.001248390738585409	-0.003546452614008302	-0.002912576526214059
-0.0008147316696954906	-0.001203683294188195	-0.006888316162275708	-0.002057042157192388
0.0003213819687676106	-0.0006468658578819408	-0.0002997614263411501	0.0009223889525511878
0.002783621440719017	-0.003598579613664647	-0.0006488157856408135	-0.0007962700832178271
0.0007522970409496425	0.0005089803813492257	0.0001305096219448989	0.0001905172622568518
-0.0117221008916601	0.003752483621339995	0.001578404882356936	0.007537819569696288
-0.007857304199233497	-0.000166653706014921	-0.0002101559970751455	0.004140595652171068
-0.00368970407805088	0.002049370288372749	-0.00227757194866526	0.009251367494323344
0.0006472439455000018	0.001091218647966655	-0.005923365876815741	0.00782175062937196
-0.009699997181699751	-0.0004713581730826856	-0.005556003161706472	0.00591373002182723
-0.00211500139903971	-0.0009317181026096975	-0.002332123036521247	0.003942759438047321
-0.004556769484986413	0.005616701828595613	-0.0006346192232013095	0.002646978998652991
-0.005069435657783818	-0.001781046418638299	-0.0004667186657362846	0.003064869660346908
-0.00867019027134132	-0.007570551989352547	0.001042303601070358	0.002625795757102293
-0.008132117970755585	-0.01875117358643324	0.003580017082363351	0.001615031216054046
-0.00257665577511659	-0.01687474857721422	0.003194049669160631	0.002318920068861152
-0.008743248108926056	-0.02258899061689998	0.004915981561772411	0.002272507589048505
-0.00879654101931408	-0.01801670148642813	0.001508514348254129	-0.0005965634705160155
-0.008624842758960105	-0.01306849993657034	0.001363464774319671	-0.002351472530134294
0.000612801467735462	-0.01084513603928607	0.002571954720853208	-0.003220050014980899
-0.003324745586755903	-0.0008019622771174929	0.002535808041337984	-0.004491365704943301
-0.000651689880487351	0.008413211989163996	0.002250585445331591	-0.0001168494614062675
0.003084329375630579	0.01267416536755652	-0.0003290292835363961	-0.004378492382381086
0.01104805852678614	0.01600873572618402	-0.006001117872167995	-0.001621110934486028
-0.01023410642200802	0.017139234880887	-0.003615833101836416	-0.0006660873831800767
-0.01177832589085324	0.01796021283303109	-0.002711962245560284	0.001278095327366464
0.004982549805291233	0.01642532000665529	-0.001886012544067259	0.004143335768943344
0.0084966600104381	0.0158353194840592	-0.001517902629767008	0.003715032688531433
0.01254002707137503	0.01209738038422126	0.001554960702585281	-0.001531786883302137
0.009123702977901573	0.005604618865092512	0.0007632938588743353	0.0006948896005704035
0.006644807373133315	0.001974305164073753	0.001082235112180597	-0.001346407509250507
0.007698770468176274	0.002334580883255951	-0.000177352201246507	0.004154478396988858
0.001043062784525383	-0.002786247090772125	0.0005816444863916032	0.001378938272308829
-0.002788520520637543	-0.004526874060565444	0.003250744962828702	-0.002077750904047418
-0.003535722106966947	-0.005158964157659404	0.003749767621888962	-0.003770045737436752
0.003560556658171365	-0.001184312758821641	-0.001095012472241531	0.0001324137670958858
0.01040339701168758	0.0007039496861366475	-0.000897070556797895	-0.005837660470979158
0.01612515323680234	-0.005829822464773845	-0.003130669054782672	-0.005610738008068081
0.01047209573805413	-0.0069890512026343	-0.006728165465955031	-0.005713323778207362
0.01024663315560556	-0.00887326013445611	-0.00319532454899422	-0.001642228148954835
0.006802008935732513	-0.0007294940381091683	0.0004575305921130942	0.01803693900538694
0.01051907918499374	0.01234077368057722	-0.003431140065974188	0.01062923050839077
0.01508574918753803	0.01344162641417058	-0.007863993255437893	0.001161337512370023
0.01645766143722112	0.01270258422250321	-0.004542906406974704	0.003775940538561316
0.01734331002188376	0.01556658464321383	0.002111329285766904	0.00137048124063262
-0.008437033909995076	0.0172028146506871	-0.0002991093174322137	-0.007358891826385939
0.001860386649459725	0.01884233852541805	0.003566898072403436	-0.00356229232570436
0.01354987320862664	0.0123105075937867	0.0004799804454176302	-0.006256718634783127
0.01573283962212016	0.01051353536401446	0.003751909199829494	-0.007333211032953897
0.005551833296427473	0.002718196982997107	0.0030122847169064	-0.001035357512511457
0.003597532391372556	0.003192767783762239	0.00703853547114168	-0.0004650984965738662
-0.001670756831063274	-0.003241925918559998	0.009218641041931626	-0.0008104358324074953
-0.01063781637314797	-0.001359215753959985	0.00598114311054745	-0.001718973380083258
-0.02512702130974812	-0.006188504475352223	-0.0002380459223992435	-0.003254380348019603
-0.01734070214837022	-0.01057388794619087	-0.002734194458647332	-0.001331288148169662
-0.009994489544364899	-0.004157106334455205	0.0006420152979834299	-0.003893513939330934
-0.002406089170192014	-0.006066010896008999	-0.002750778759042971	-0.008305714798306895
-0.006378156331280818	-0.00251858777805344	-0.00204939039498985	-0.008369605845790952
-0.004961514829792318	0.002083739783220237	-0.006284763422119428	-0.008573583444046226
-0.006650613379150903	-0.002178164647964239	-0.003308867260588494	0.001714999242938847
-0.0138482701451901	-0.004394736710181144	-0.004562757417228304	0.004526162838905561
-0.01246261959152303	-0.003524061052162997	-0.002110722996763879	-0.00175074926586258
-0.01342781751111179	-0.002169827018537286	-0.002720622533071809	4.62651776594222e-05
-0.007155331851344568	0.005650130106708319	0.004943673680436492	0.008971318042644914
-0.005616919774766365	0.004827706801009659	0.01203262653378821	0.004347536706370819
0.001194742532412561	0.001428132727383885	0.009990884831277438	0.00402315793491069
-8.337239868905244e-05	0.0009486290238410269	0.01023628185958901	-0.002558868248082239
0.006295543693156635	-0.005507095151053626	0.007575429309200342	-0.01405281125824859
0.005770891685123418	-0.01196543794222537	0.004501581146818174	-0.01597926074979516
0.01140206987886924	-0.008970510314082849	0.002349121626519216	-0.005568980912263523
-0.00153211977829828	-0.01263547210607727	-0.002183063999896781	-0.0003411720958846173
0.004441972968602689	-0.00732259675921881	-0.001796717068454572	0.001300383999381702
0.008591529296284027	0.007644820493974176	-0.00937245313831276	0.003456357756301784
0.01173910202152785	0.009209072950923025	-0.003016310173541248	0.008540092544522704
0.007723170758336003	0.009081697735113397	-0.001191255199848952	0.003471737553730226
0.003521882059824487	0.008291062525822705	-0.003602326359843264	0.003061662431137763
-0.001438612342868235	0.01165059214521216	-0.001375256131865314	0.006660890227898823
0.003408710637985982	0.005310100039661365	0.001825780546996014	0.007900597479270476
0.006170608605960512	0.004365963764217067	-0.000870583917774947	0.006478944199330557
0.007608774495126946	0.002066335839034783	-0.00539009638467146	0.01625475033991857
0.002423090604368142	-0.001671331051168106	0.001736795083406876	0.02085927608904478
0.002088197032907307	-0.008941720585620146	0.005306295716063889	0.007520560203925977
-0.004993904684490056	-0.01541046661005555	0.002341518486513672	0.00126523406824285
0.001189239105905762	-0.01748426408871641	0.00339777586385452	0.003380474726383944
-0.001419097604457995	-0.0155924712916768	0.003959507332996894	0.004901001372505995
0.003643965201332952	-0.01641069613963443	0.003407611199343272	0.004290545556101061
0.00859186490656279	-0.01227028685753537	0.0011820992149707	0.000639276830872135
0.00957716531227471	-0.01240426990569256	0.0004004198966239239	-0.001200406794289957
0.006688153370493194	-0.01083179545878015	-0.008140318795900431	0.0010182938907783
0.006906655866365428	-0.01725457420226353	-0.002886002276306961	-0.001422373148642596
-0.00313740861291735	-0.02211308197357566	-0.007386154456277745	-0.0004035288162679584
-0.002013641000444023	-0.01503727982375432	-0.006105847558103592	-9.107044965628666e-05
-0.007121754399665794	-0.007568223544680125	-0.003602087524308601	-0.002859410768887585
-0.00731327107239005	-0.006871848685897119	-0.004969048017544465	-0.003529879899571381
-0.02316536659800526	-0.006174523523801123	-0.001069059298414901	-0.0015513305040932
-0.03984044682988434	-0.008304519660301301	-0.002023508932618148	-0.005758124445699708
-0.01612415274207395	0.0008941647181767098	0.0003834885588762178	-0.009366058204341554
-0.008645025692910762	0.01779963579260677	-0.0002900838767379352	-0.009724669091033878
-0.002553330233232253	0.02918307559915018	0.005051648426821256	0.006760044405963275
-0.002034920320073103	0.02669234581567072	-0.00756876218346126	0.005475130466961191
-0.0001996342561411281	0.009753904726116976	-0.006092157729608485	0.002834151574221551
0.00196726791768849	0.01289559566184259	-0.003599380509489494	0.01364641123359089
-0.004269446156433702	0.009032125315160226	-0.001289246340696327	0.005972381750517531
-0.003482701762127748	0.01048764279845991	0.00248372515423587	-0.002260347678872686
-0.004229355514772042	0.008041534470652164	0.002522880674652819	-0.0002191560897665743
-0.007572495416294621	0.003352570071855099	0.005680200580058256	-0.01092580116064534
-0.0002963066018892914	0.0002363213525465188	0.004815515157285155	-0.02428458316560935
0.004887519808294593	0.0007192413000091584	0.00423876229971838	-0.01824549731025965
0.004526042026874701	-0.0002881653181653829	0.00130217317110266	-0.01590677785093011
0.006463015245874642	-0.001813349735439734	0.0002031259517145827	-0.01264627087461479
0.004451045251729255	-0.004560676669996623	-0.003380552322787041	-0.01154261410864494
0.01340370127716279	-0.0002950255579311814	0.001957988429534878	-0.004931501144851305
0.01411972168601048	0.007799168841407099	-0.001962672006049319	-0.001770432779001917
-0.00386193681589386	-3.078244198025489e-06	-0.00505868338891258	0.003026300738871059
0.003231494150021407	-0.0001708101533040255	-0.001396825991833888	-0.0001652881820578007
0.01499665584298008	0.002824035371611946	-0.0002250880279173686	0.002627015580786559
0.01205397250218243	-0.002477975460090662	-0.007262674598988278	-0.002995411285095117
0.01583580617627755	-0.006649244171418061	-0.005679711137825044	-0.001443268475972564
0.01108628854073622	-0.0147183531990591	-0.0001403783725236308	0.002558886567665624
0.007444347367432713	-0.01977947278972933	0.003413865840409755	0.0005797316964832034
0.002942943479761669	-0.01182242799165707	0.001549743849570449	0.00200131488526681
-0.000190691513504905	-0.00570896309827436	0.006446883695106351	0.008154564595085923
-0.01643548784513812	-0.005715804047722183	0.007271588149656486	0.003218955483407639
-0.03162582182023672	-0.00858722931256151	0.0009713992734798891	0.002898333397966434
-0.02958075796965392	-0.008936022516195997	-0.0002560882148295298	0.001803361951201713
-0.04572276020795664	-0.01117104073542438	0.001508411391939837	0.002122906518534257
-0.03161754452801624	-0.006218337713316953	-0.002157502986652064	0.003354682805058758
-0.01553045264215154	0.003962408343524191	-0.002543537256407618	0.001230143154150438
-0.001459701248644492	0.01328107782436974	-0.004100444848530361	0.002864279089933155
-0.001550068379658419	0.01519088576552307	-0.001890588275915102	0.004681349324209079
-0.01080532492566162	0.01804806912192628	0.001418925567690799	0.0007910827967716858
-0.01045628617012309	0.02222748086177192	-0.0003736250877676888	0.002268802614909255
-0.00137266086163774	0.0193334829959928	0.004365412558961376	0.00114317400645833
0.008770688063968168	0.0212457036260877	0.002714008828840348	-0.001303955691101177
0.01822276816884768	0.01400752321045592	0.0001231264821051195	0.001659732944483357
0.01203272864646427	0.00111441609166758	0.001850605574780102	0.002843600572954243
0.01139853470875246	0.003048268850749646	0.008610085363677109	0.0009380699919778923
0.02129087667354847	0.001163955052551617	0.006393848504205069	0.003147272258103904
0.02661434562942725	-0.002925975651717112	0.002355425629805626	-0.001270144772702376
0.02795062365838854	-0.008094194737260203	0.002520024195068503	-0.001313349500800867
0.02182003192372172	-0.007162724329652374	0.002582404838329305	0.0004786617859479568
0.01781487921261395	-0.004439257417606182	0.0009863085524531964	0.00163968402892129
0.01465016595995516	0.004275834720330857	-0.001959132230377153	-0.0008636967440714292
0.01800098518510067	0.005917030560578065	-0.001425835810193039	0.002652082732163722
0.01515413944760184	0.01192004786852211	0.001445467208059051	0.005865665030809337
-0.01477420629592623	0.00516115189091789	0.001880559928732506	0.01166210715438757
-0.02620438578083497	0.002629453066247967	-0.0009073371328546325	0.001016738489906172
-0.01813549486716001	0.002112484311164944	-0.003227977861930055	-0.00113285325891893
-0.01478383468728615	0.003477759025292987	-0.009167919704271431	-0.004207604736183824
-0.008352025104078054	0.001435355272724959	-0.004044366145521122	-0.002943597945741319
-0.007485620539155065	0.00468204251140402	-0.0003322801996711096	0.009501411942905059
-0.002799882897697603	2.190149280126242e-06	-0.001072249941556917	0.006437391356769438
-0.00464634597363204	-0.005069725316896007	0.001234957832488828	0.01686911228317406
-0.001214695925515412	-0.009230054525192344	0.005405487330731372	0.01125355274323934
0.008239226969451351	-0.004149845497151205	-0.005173580472152033	-0.00813330987621232
0.01247793502950356	-0.003460279814523945	6.681338219949469e-06	-0.01316750807044463
0.008029463314832199	-0.002932571965265085	0.007521884551233542	-0.007050855556430887
0.005373798242514233	0.00448864987919136	-0.002734646285219642	-0.007025454855804696
0.0002966250790340153	0.005386192965431703	-0.001783865189952024	0.0003631395863991893
0.001857696595085233	0.003543261733002082	0.002563784826909896	-0.003232282726621832
0.007022290417761399	-0.0008852653006152418	0.003123814979191653	-0.002380046372307337
0.01190319086461979	-0.001402670704594849	-0.001437709968515375	-0.005602847373445547
0.01513691181226003	0.0004342083066886378	-0.006773953508966755	-0.001921023992040901
0.008347104339992488	-0.001495721543961559	-0.004618538555753722	0.001104419602659605
0.004406992472916699	-0.007507251842390383	0.002613921600802479	-0.003053853087949037
0.006797745862121345	-0.008999399566484613	0.00770772265554261	-0.002107284690138561
0.004163889658451238	-0.008643299738039749	0.001415932907834685	0.007601997008176393
0.006060195899251047	-0.004134751332781271	0.001793923269523452	0.01286875479886536
0.000533662372359818	-0.006433280595451336	0.0002146592194020126	0.002876089048443524
-0.01613291882789625	-0.001163225661189348	-0.003871602059468326	0.0003473461224669996
-0.02376985914228728	-0.003853614854349816	-0.00191622672699502	0.002024220089901589
-0.01163238490396895	-0.002113687078315755	-0.002005221341425084	-0.002653710027281928
-0.005276594059583109	0.00321823578228864	-0.008396460723326024	-0.001375728739930011
-0.004625107845909064	0.005699105032840034	-0.004665809174209085	-0.003524781332557756
-0.004185633220724619	0.00769859766745383	-0.0005639961428564411	-0.01474906835715101
-0.0007684024386783567	0.01162327663701815	-0.004118398193605249	-0.01505343585643021
0.002295064171630695	0.004725219285719665	-0.001993315010858455	-0.00842102811567058
0.002111685064307086	0.003005735759223831	-0.0007601958304056554	0.004555573133635075
-0.002087694858267035	-0.0006362329777244728	0.002940210412032718	0.00274492586193233
0.001081176836985939	-0.001066643302397845	0.002853696919836205	0.003449236204429827
-0.0008888245982932352	-0.005683251523888383	0.005514415873480694	-0.0007078588793237521
-0.003140456428404653	-0.007935251530485707	-0.00017612927700526	-0.000309381624847118
0.0008273718588644224	-0.007452324518385141	0.002447656457290988	-0.00210247791384859
0.003969027670683923	-0.00395990376431904	0.003138401331351284	-0.001896244375282406
0.0005623142480304009	-0.003521526367873862	0.004895180341876373	-0.000253679944206531
0.00278632288901997	-0.005319821020508688	0.003779193846416351	-0.002666405144869208
0.0008801050367435563	-0.004930968848573663	0.001654123170562072	-0.003166265369566486
-0.004399117948614806	-0.003386868303868597	0.00161068385015701	-0.002124481330311574
-0.004855675220102934	-0.00537295627964365	-0.004548683471126178	0.0021259779657747
0.0006795568884942697	-0.0006364722474152671	-0.002129278384373132	0.006753823101896089
-0.002112949877603869	0.0002763456613498665	-0.003530956013113723	0.006870435905299674
0.0001147647235629271	-0.001076546909861122	-0.005620549303015802	0.007645153773332269
0.0008700195808189807	0.0007480461940621377	-0.004150325692308715	0.005375295704827784
0.006795461483564977	0.003630782219083946	-0.005604422965766449	0.002561841478800198
0.01336695837616373	0.001040960613868132	-0.002935062047669723	0.005364482901853277
0.02062695889799526	0.002741179900617802	-0.001431376154009984	0.001647338886109884
0.01544865647510242	0.001932757696926764	0.002374263105818447	0.0002521675162637157
