0.01138218008118783	0.01467821274493041	0.1377002496124827	0.1596536151318267
0.001004854227886181	-0.02094637438524863	0.07032939503934107	0.1637394351439625
-0.01742174135893762	-0.06706827985580828	0.1566628700995589	0.1150755386461829
-0.03058442997212617	-0.07511337532939731	0.5148185495601861	0.06891187215051373
-0.04866517547696327	-0.07156233320295963	-0.01840865199583164	-0.02919859733851164
-0.0488865461759837	-0.06526130072280832	-0.3098537795988623	-0.02808901341077504
-0.003464448328517621	-0.01049813703318196	-0.2553080522490413	-0.02358732037523492
0.01958028019051958	-0.0005852763633777008	-0.365597833260343	-0.05197692639658862
-0.01456346337445417	0.005687235756265287	-0.2449380356449656	0.01508197310302646
-0.006589882251383538	-0.0109017534012179	-0.1808895902592417	-0.01338088394796218
0.007592607735314777	-0.02682006409966694	0.3885197408601803	0.01852728973272384
0.02319759240818923	-0.006478683636679938	0.4439778492851137	0.0473652641223999
-0.01642609941193867	-0.04043913320138462	0.1425074919015276	0.08358625846466695
-0.01858553562544197	-0.05370828158432768	0.01175771713906107	0.104559372360927
-0.02646475184136035	-0.05723056482797753	-0.06716719412007258	0.02253591545594914
-0.02547418040076653	-0.05756534859953473	-0.09436815646097267	-0.0281776137966207
0.00183836747204187	-0.03184286021838508	-0.1218814566526716	-0.02938645179670379
0.008949176822215762	-0.0070309673974764	-0.1842227889053666	-0.01314512618380185
0.039070270658275	0.01025318805673169	-0.189002963330992	-0.02486435226798464
0.03643451539674629	0.03353581437813674	-0.1678843685957293	-0.02272639038753951
0.03766854641507878	0.04289803600924361	-0.2138108767578886	-0.09588629408130504
0.01455460261529681	-0.004208173736515164	-0.06625971741763301	-0.06979115275265835
0.006642647660722674	0.01277647192387968	0.3457266054795954	0.01468374325621852
0.0263913696801368	0.06893332758715343	0.1670969879375082	0.05726319333108591
0.02017734079328441	0.06623339742490195	0.3513831770718563	0.09413794097752481
0.0394673633534986	0.06221275065108218	0.07021616154541616	0.0239946678151756
0.01518788216827782	0.0465057367795812	0.1293676030423707	0.01756860479940404
0.007120969609297227	0.05040258852119698	0.1634415046716538	-0.02773234468694373
-0.01453706482650381	0.009656269170974199	0.09861679549849457	-0.05225928984163655
-0.01320293225493652	-0.0009714418669061122	-0.03246062554758044	-0.08857977753417308
-0.009157248988364994	-0.0693650117165804	-0.07188994402110566	-0.03433606348114952
7.50486504271468e-05	-0.05925721406711239	-0.09756375593432688	-0.02488032349556294
-0.02476286353148666	-0.04895745237900365	-0.1231004281310311	-0.08974381873554409
-0.01609510339071867	-0.03220223981547593	-0.1739570790689565	-0.01469019434215132
-0.01743642171176765	-0.02971429428687883	-0.07916127132195225	-0.03439002772069088
-0.01838096670385411	-0.02456728881968522	-0.03610075587174138	-0.0490950483150637
0.006724737951649031	0.01680032232835229	-0.1888858424008409	-0.007856437635797898
0.01398682517069625	0.04421412345212448	-0.1616775116406483	0.01289429571965699
-0.000155670824234177	0.0630720294550822	-0.1423868876186109	-0.006283691516116898
0.01146002225090031	0.04742333126725438	0.4597205875623093	0.0324447522353554
-0.01418441917432586	0.003886160070558761	0.2781983886115538	0.02280171014948354
-0.03574531631624545	0.00628024112627316	-0.02673070187670127	-0.01060619933712653
-0.0008890815298499093	0.03205312192945595	0.08906191734630256	0.1196324135441973
-0.008540684033562021	0.000370360371316648	0.1833715160690768	0.1788172420826598
-0.02463430744637215	-0.04968564372876538	-0.09404791409916839	0.05818482726282443
-0.02397578429273908	-0.04194803480888556	-0.1826126733419664	-0.01697443700734661
-0.0212701553313216	-0.01947513757354925	-0.201700724630215	-0.003199499844098376
-0.01650805019752843	-0.02913816680113403	-0.3396424572733525	-0.01501629395807602
-0.001778732882889643	0.004346276975642613	-0.1762471764406499	-0.05145080059972042
0.006973452514672854	0.03352914794635693	0.3254884418031541	-0.05644066882832883
0.01785567223455513	0.03172888221944992	0.4029767207850364	-0.06570840367293604
0.02523212710923221	-0.001981843478226856	-0.006499952962046943	0.02576970285699216
0.02101646380649377	-0.01728285362865783	-0.1962483239130328	-0.05079035988648245
0.03008096651407917	-0.02111560658155097	-0.2124138335389895	-0.05517087730680063
0.01173369493412174	-0.02611761535646168	-0.1504233734323135	0.08299325955532619
0.002465841941192393	-0.04075988138293236	0.1439140518148778	0.08046188735060159
0.006852227109839729	-0.03412762122927242	0.06890758018971639	0.04594325374405457
0.0296470985196221	-0.01101730490581572	-0.06314482949377978	-0.04305054200387026
0.02008593017090947	0.008130161796314619	-0.05492182076139598	-0.07016161299720713
0.01623761422657421	-0.0061654781048259	-0.1503637022615551	-0.0999953224782608
0.01246079278788236	-0.01027620499199459	0.03686610678566947	-0.07098460394073525
0.01184191075197618	0.01576486461481807	0.1355442406867541	-0.006865246191776749
0.02019942943484165	0.02430310746274916	0.4366777464827763	-0.006380544731323321
0.0116401088330455	0.01061895675282264	0.1485741014657222	-0.0009499010035517734
-0.02415613967544541	0.03477591819295549	-0.1011836228613653	-0.002449344107940009
-0.06198119295259561	0.03093582990149396	-0.2179883912003588	-0.02760920350212773
-0.01109476907444341	0.05580698909118057	0.004321709609694467	0.05230597860975959
0.0289496405093364	0.06304534212608712	-0.0002931380804129143	0.06367519556145866
0.0210220840693251	0.04803835494493332	-0.1033724988513338	0.03358891849390006
0.01957933821957341	0.0115214374012987	0.1451515830691909	0.04139182769708787
-0.002100108525670428	0.004887680966417198	0.1194219459400396	-0.02659589434222319
-0.008381669672289928	0.008009450210387183	0.01692255590824318	-0.0708006694250109
-0.007235324643861801	-0.02468716066343304	0.02701712792413024	-0.03335738170866945
0.004052475686018533	-0.009353570946639028	-0.2936234681675076	0.008536009148571541
-0.0233875786500127	0.02118825378177777	-0.3867113597078168	-0.02239794923244561
-0.04124018961538439	0.01758399476961434	-0.4720184432828605	-0.03221068006453853
-0.02625967375636532	0.03645627039808291	-0.5298332686174551	-0.04051491215607338
-0.02106575959388799	0.03377708882761868	-0.4798150589491548	-0.02978059362129187
-0.01630049122939153	0.03287352619096646	0.5764745882205283	0.02652247744316577
-0.02253597642798201	0.01970872933391678	1.193060968741813	0.07879054495478155
0.009320093121913302	-0.05881204179171604	0.6681520135221999	0.05537615517885282
0.01436839479186914	-0.06716965393699435	0.1325155544558966	0.0383032438391394
-0.01764243021388535	-0.08781230994290484	0.1016705086672297	0.054690162807895
-0.02854305356505873	-0.1093900041537513	0.0281674554481401	0.0946826485549543
-0.009387300669979844	-0.10661341358512	-0.09511046050743036	0.04366790400579527
0.0001047608714172085	-0.03683192517558184	-0.1383853108853441	-0.02975496101200923
0.003001633078512344	0.01059892909481558	-0.1297993652841377	-0.03780131395141498
-0.02755624474874604	0.0059287789685519	0.1260000547666434	-0.07428305810414543
-0.01087590752930466	0.06669597349113522	-0.03002533571703264	-0.1150868139227772
0.0139718264785619	0.06498292001751693	-0.01119277944494518	-0.05823651417538855
0.004947724809174357	0.01016067990955975	-0.08895262834090459	0.04518923696671888
0.0009886423200253416	-0.01756986815021543	-0.2527855005527081	0.03029459446405506
0.006293931781806874	-0.01870859675511238	-0.1667759768295491	0.0830620284244922
0.007577629738384897	-0.02978249008049087	-0.2492636119996723	0.04707142791855412
-0.01130965980456404	-0.06136808451149731	-0.119982844150723	-0.006096759345530804
-0.003974713350801997	-0.0734278758791729	0.02385972482891531	-0.01561362914469475
0.01325969156774437	-0.1060858048260845	0.5031333224154897	-0.02575860381479419
0.009094857804751324	-0.09013347841447059	0.2691421733910299	-0.04822111991708739
0.00384817501773799	-0.06708983115284801	0.08537840283788693	-0.04708828185519015
0.01328876124555996	-0.02325642566299083	-0.1409202954530966	-0.09582383865392105
0.0157534151236628	0.03587330491798707	-0.1440438175357067	-0.02736132173877044
0.02396942794818455	0.08850701167920869	-0.1185326837075513	0.01007870938804665
0.01100726752443853	0.1006798798390749	-0.06240238509527656	0.02514799881664444
0.01467223507585752	0.1293488308838201	-0.1176381588598953	0.0280970717817197
0.01176841034746314	0.2096381750036815	-0.2129420641082484	-0.01727771875586401
0.03818497862311326	0.1695693308344417	-0.09374432437892405	0.01684473329388388
0.0629919219129863	0.1038998931295602	-0.02508314138112319	0.04888225296925332
0.03409256525410419	0.04056942222210305	0.005342760054610641	0.03193759720451184
0.01473449137142803	0.005647360669267887	0.05562738020331619	-0.0312689716281047
0.01571526121950759	0.002667877453050054	0.03175887749910924	-0.03978111402677906
0.001814715063226625	-0.01448649894689626	-0.01289020976697995	-0.06958015726033011
-0.005200196965066291	-0.0451875116761499	-0.06183861847307653	-0.07953830241870317
-0.002199191819413939	-0.04551735683758758	-0.01527702521245715	0.01255951182619925
-0.04523429009930068	-0.06121934478759642	-0.04095821973272602	0.05860551155542713
-0.03004322846717017	-0.01472389286782796	0.05056715176032841	0.09070021602280481
-0.007516806996462856	-2.087000347842987e-05	0.01902924161209837	0.09237771884677515
-0.02815774776126703	-0.034003796745583	-0.08825261521917377	0.06121069325363865
-0.02441785979627704	-0.05350107754683679	-0.1226916369530593	0.04151912900079833
-0.02918187519404766	-0.03719192475618996	0.0009406865778634498	0.06315802611197828
-0.0243451946679305	-0.02834804659083559	0.0200231980461531	0.09682544777536528
-0.02866285271532688	-0.03763277244074122	-0.0213825397154846	0.1136280625775734
-0.04252259795941937	-0.03525797978968796	-0.0007961933502752163	0.07822172263285203
-0.06025686512349216	-0.02682365664078939	-0.07830804569978612	0.02456665156664679
-0.02324951689104491	-0.004651168130337422	-0.1844329685900103	-0.06200765607849082
0.000243913575473392	-0.03301847696606547	-0.06312087475575853	-0.08706605418578545
0.03127197068100394	-0.03677298140780625	0.07094239233267556	-0.07686218452054713
0.03304201997380367	-0.05637214870928766	-0.006752502495647255	-0.06302242835666025
0.01864099265888758	-0.02926486853569166	0.2983480577617665	-0.02964024134576891
0.03750550814813497	-0.02150836438611541	0.360973582263161	0.03014444998464857
0.03584950730560682	-0.003961361573247816	0.06981274195426718	0.07948302911007465
0.008639005171631912	-0.004286529947914898	0.1475640862471043	0.1038402879481966
-0.03299946529503673	-0.007484582362187299	0.1425456574645975	0.1682141719774278
-0.03576370922519524	0.006297164345951602	0.04723449922262663	0.0131480145809726
-0.003275382826305585	0.02063595969460454	-0.0006629790026152851	-0.06970646649580556
-0.01438628756701161	0.02566104546994961	0.04527400442983152	-0.08509216484859884
0.01838037685779103	0.0498336675486384	0.2032412937054706	-0.08351081848711144
0.04497215723091993	0.06832004148587872	-0.02063777327554108	-0.06597873925782805
0.04888177530066489	0.08368573420007398	-0.08196146144811749	-0.007722801522629984
0.0447526766481797	0.08967615440621922	-0.09796758703685206	-0.004189718983823998
0.03455108515367342	0.02420818893072798	-0.001249002200066461	-0.05093389035168295
0.006910047585221054	-0.06230901987840878	0.01178894623608382	-0.05649695280909364
-0.003146413426816895	-0.06080872327289497	0.1453983421892289	-0.06560735655977457
-0.0008017686882218736	-0.05034170324793025	0.07039783985233478	-0.07191004682432332
-0.006202485960364472	-0.0747913308476775	0.2115691290866132	-0.06637166287360313
-0.01276684659921179	-0.05169708910075466	0.2042912946327617	-0.05581406470472683
-0.0095430348967597	-0.02383166665103689	-0.1131277522316243	0.01338405756403934
0.01454860405579989	0.01000386438270203	-0.2116005258964395	-0.05284324420674603
0.01250186678217731	0.0149557948363519	-0.1869048484870141	-0.05338937513966405
0.004270581017485168	0.03020710937880551	-0.1848317568066325	-0.02432717718016941
0.01439809516566229	0.02253359083703365	-0.1821512212663853	-0.04560561423730887
-0.009324147493471029	0.02695714500946502	0.03175404832506007	-0.03129083958157788
0.001222002146431414	0.05808131803742552	-0.02655586397471446	-0.01305083683285649
-0.04523252773684448	-0.05292798320188957	-0.2200269609777619	-0.009913994855768479
-0.05608810538410311	-0.03650891023906579	-0.2740887320468307	0.01905516499536866
-0.03164601378460678	-0.01073309266955145	-0.16177788840876	0.03304154768181595
-0.01261536115148337	0.03139267676135469	-0.1262222000435662	0.05559431331942672
-0.01295135228980115	0.05903416857675339	0.157297874522891	0.11369838746025
-0.03304044730983502	0.05172467267131168	0.5077160193164396	0.140610673968923
-0.0318940197589539	0.04202284769672138	0.236097365274062	0.1345277854248449
0.01959516997836675	0.03947578549294665	0.03255716158599418	0.04702493921667156
0.007022697057215525	-0.02524632241600723	-0.1188022460186718	-0.06757551299916419
-0.001317491574638463	-0.01376810910241019	-0.1100750066815205	-0.08679270381334152
0.0211336896435751	0.03954089605014439	-0.06669899100415265	-0.1033286176438517
0.03170871117450985	0.06924409813259191	-0.05056106453282602	-0.08051954721029711
0.009594224763795928	0.060621918800639	0.009377691804641227	-0.04288582012492827
-0.005854388958710662	0.05252300092452312	0.05324281449098305	0.007171585363979034
-0.001351053831129309	0.03873189814416238	0.2230848526186998	0.004302796303804845
-0.006388740620912374	0.007051845235130425	0.3667359587187521	0.01461696475318803
0.01110766107446511	0.001052537188831675	-0.0266553504383699	-0.01157213700887188
0.03193391172807985	-0.06010886239677558	-0.2288824535466851	-0.009766597815082281
0.04496519448587006	-0.07695077280107837	-0.3563539801274775	-0.02708318468238506
0.009428277605151943	-0.08245641236342331	-0.288338785428879	-0.003950667973684658
-0.006546536870764696	-0.07875041618446327	-0.01154960835148033	-0.01295954474181053
-0.01282082153350167	-0.07028732033709208	0.235806462801338	-0.02256244191409647
-0.01312099354340097	-0.04830608478569656	-0.05619127933118055	0.03147559752782448
-0.01398678917309187	-0.03996596247327037	-0.06851351924582141	0.02606038016141793
-0.01752479760039246	-0.02634357711138307	-0.02910163888594439	0.05001757814869133
0.008645605927248862	-0.01217736055707108	-0.09095076353544569	0.1291547861212497
0.02515484144219125	0.01988491905150316	0.1222756798905041	0.08761245720603394
0.01874551681604793	0.055238204385775	-0.001551438732437188	0.08362707697308354
-0.0008686972161182599	0.0250950273144319	0.4549327905286085	0.07547396129143545
0.002051437478416761	0.05223567063841272	0.09382859893159388	-0.04168892606882511
0.003753384041506375	0.03526402919694492	0.02733139168750651	-0.06837398624369813
-0.01530810223847881	0.01156481859634911	0.1038032623433631	-0.04249160757116353
-0.0404002513859332	0.003079604424728619	0.05402134622452023	0.03119220544643007
-0.02700332657965293	0.007878149163517659	0.008814854366405184	0.05346253036330587
0.002328554550659721	0.06116775598561927	-0.0354054139332381	0.009694948383649092
0.01321300051994856	0.05843605501056601	-0.03941833806174388	0.009051088277161242
0.02441983999955874	0.03186796504681041	-0.009118281524957948	-0.03442600787434311
0.02384030113547271	-0.002853511099859144	0.02440203031397197	-0.0591865620929788
0.0185777630687068	-0.004678746311101672	0.06351413650919635	0.02077776938066902
-0.002318115810544175	-0.01594088930430957	-0.01888048746311683	0.08420395757320183
0.006796035714387724	0.008109051059234164	-0.05470940896298984	0.09441877817255424
0.006097521503383249	0.02103997019317475	-0.08519807539529413	-0.0322642308106551
0.003607032808568158	0.01693177642519857	-0.1604495113422892	-0.1175901381296108
-0.01996416267474638	-0.002760432149826362	-0.0487402844947807	-0.1352480797813973
-0.006099766316596	-0.01666381893355355	-0.04046229127119139	-0.05209258596063904
0.007648524158136718	-0.02494280097519526	-0.06268814890937993	0.0144695662018761
-0.007916686181625072	-0.0500052760734133	0.02726088413513766	0.05704109529781307
0.006199140334514267	-0.01906679819916282	-0.06964105931201252	0.1141824114244237
0.02103130389976224	-0.0008123974343241585	-0.05438855494057638	0.05558277957139211
-0.01746163042949215	-0.007948533059837254	-0.1390909510698956	-0.01520746411996753
-0.03552946612417786	-0.0333901433285507	-0.1949758300625871	-0.02343658403413597
-0.03581602827556448	-0.03661755581219924	-0.2737977994134213	-0.0239050570481676
-0.01745789514189745	0.0009208522047437398	-0.3101122620987237	-0.0972224654105969
-0.02700727107234883	-0.007458353416871517	-0.1807518668517122	-0.04816691506340366
-0.001014177782012693	-0.006690598375074032	0.4557135819267853	0.0659261931951592
0.01003441476834534	-0.004187580806275132	0.1905060898397907	0.04848015617084118
0.006273932094336068	-0.01345059291880014	0.04140677696967619	0.01241857454967957
0.02181333605358904	-0.0455584416189113	0.1879543258083494	-0.02618325786373872
0.01967296826678371	-0.04785677468498008	-0.1860927235370968	-0.09771146565185437
0.01656783209405345	-0.02942696469351224	-0.4414372585820268	-0.08361140758777816
0.01809787610878905	0.003475686787327092	-0.4088654892104744	-0.0796114388180498
-0.02792088282595687	-0.05776686138699262	-0.3029692164490342	-0.02605178640377841
-0.03691582415329665	-0.02224774769789711	0.7979743482287581	0.05834331747947006
-0.01218606582502987	0.01718577143082341	0.9079199675673572	0.1467174823063719
0.007957691187843655	0.0156051259703207	0.7400148152427354	0.1345092590792415
-0.03696791539770464	-0.03832467508176353	0.2735965034289929	0.09323393355874197
-0.008669109282498625	-0.0118736734122606	0.0592751037559815	0.09677065937738112
0.0431364949670861	0.08431514362432477	0.02146461821992259	0.02181148581811785
0.002925216297304627	0.0809935715271802	-0.1101120539019663	-0.04716595646343581
-0.01851221607074851	-0.01599858897478994	-0.101289872474777	-0.121389944936672
-5.048008945543993e-05	-0.03467878554589537	-0.2685199618410415	-0.1424496266586165
0.009865967625149272	-0.0442697864228173	-0.05931993979599225	-0.1294386440867089
-0.0160175075147675	-0.0221214797335125	-0.315300918649862	-0.07324276599624825
3.708745521143546e-05	-0.007069980658974412	-0.01432039492824713	-0.009173284133657382
0.0436565730914523	0.04532407945039055	-0.1057028136104253	0.01721781477034188
0.03291226340925122	0.07553270802295807	-0.05031999825845669	0.06215379710702826
0.006255216172458624	0.0450973687309361	-0.03178589635741152	0.05292574643158376
0.006660111918896593	0.04023854678486415	-0.02979303330159888	0.002133695684607714
-0.03170936873068919	0.04391532674601351	-0.07587563348620607	0.002103081468834478
-0.05565056045887228	0.03638190030653025	-0.09254138636901686	0.0450346338761974
-0.01889910780179417	-0.01414891388378502	-0.1121281881015077	0.002641901490498538
0.007394223568853129	-0.05693749883076727	-0.08440022374636431	-0.03611072350398304
0.04045566893345898	-0.08574657140403318	0.03200814730162142	-0.01496870507539092
0.04018321569358066	-0.07946049915146795	-0.01177977898348893	-0.02347965063410248
0.01526896012752866	-0.08675061214199395	-0.08862230690252605	-0.004567395894582198
-0.01366798851402515	-0.07365431207484434	-0.1691796867025306	-0.04003049931823908
-0.02238279286298343	-0.04871671322612164	-0.2362376727228813	-0.117084763761756
-0.04460142650116963	-0.03166571613843002	-0.3235618252821159	-0.1114005910187593
-0.002894909504532956	0.04800420539193939	0.02732526151709033	0.002335576382769984
-0.001666884822370224	0.09428627017812756	0.1900999260986138	0.04567216404326217
-0.005866150245904744	0.098427474955464	0.01320206190438203	0.1180281438866447
0.019031208788023	0.06196529517964947	0.2676918507218433	0.2031611612763587
0.01763822801429081	0.01854026044064849	0.395569592716787	0.1974212450075244
0.01055812114542432	0.02572287506900997	0.3657074893199758	0.1192239270170871
0.03299008778123521	0.07362087369097466	0.09021421047524054	0.03055612172844268
0.03163014557791255	0.08544917444184663	-0.03805786158762876	-0.08297330259683298
0.00627623782031228	0.04860649737851658	-0.1888991339690077	-0.1488826577388243
0.002132638379561954	0.02190651846874489	-0.1251693451424822	-0.1231116674092601
-0.0205253872086452	-0.06564015283982214	0.2172717069821434	-0.02969028875369814
0.004509507342624652	-0.07489273102998936	0.3923564892051673	0.01416133517697834
-0.008603432413364656	-0.08250710076101361	0.09294655907191672	0.01777748461642444
-0.046817473527141	-0.07540582771644924	0.01720313454432738	0.01612770843675899
-0.03817554984376719	-0.0159219740147306	-0.05667040780252786	0.00483677605074643
-0.03077366994683682	-0.0001115382690587361	0.02220433563181082	0.0182258039096425
-0.001275880487574094	0.02907155458884689	0.03434276271261309	-0.006181767416879152
0.02404312614918468	0.07584595900985611	0.04525823748892214	-0.03059681051209164
0.01846445303431917	0.08921609364901954	-0.02918018808182127	-0.0710984191819537
-0.02495146047764725	0.08975975048023527	-0.1885696211809632	-0.009059276895719394
0.01235259555680656	0.1157189773294709	-0.2371797927561867	-0.03914420534183045
0.03753345778101295	0.05368056176464078	-0.2068620057394502	-0.02499381383093998
0.06308646038499154	-0.02061533981035747	-0.1316948407540201	0.1158801270570462
0.0727739130970881	-0.03477443676008124	-0.01804370038118096	0.1159041934210603
0.06042935479282249	-0.03665751821548761	0.117109552543516	0.03630579871286778
0.009877349997523195	-0.007135732511634088	0.002188973641863418	-0.00470039873915714
-0.0245111264303558	-0.03982246564647243	-0.1116372329184609	-0.07256035140277467
-0.01354188829806649	-0.02568786252617051	-0.1348436084929035	-0.1318753841347124
0.01739489537484725	-0.01425853585076011	-0.01578825031522578	-0.0871507928904814
0.03941517783931942	-0.006639554194139539	0.06508354536585323	-0.007761261222434784
0.02420201338646347	-0.01289595352458262	0.06331891518635177	0.06806791506808141
0.006614561905402367	-0.020737812161651	-0.01811470909273628	0.05996527517399899
-0.02384087695278697	-0.01562274383001298	-0.1025316353522983	0.02742818847017212
-0.01556980874151535	-0.02686458993122335	-0.163170493491346	-0.004065635211343406
-0.02892854382008984	-0.01435623833546572	-0.1169373218048297	-0.06198826930560256
-0.02632944049270549	-0.05700277558832097	-0.04278120633981065	-0.08882638470490548
-0.03694162400692026	-0.07275572427171424	0.3329605373196208	0.09277179351559686
-0.04341294292516482	-0.07024471179140214	0.1816044285535754	0.08050681255452478
-0.04169816794144088	-0.03832571266013037	0.1726463091555773	0.06127314478916827
-0.02213582373211694	-0.01399895340073143	0.1203776902261509	0.04667816320511203
-0.01990909247579117	-0.01354422594479376	0.0146590206783913	-0.002600539027078299
-0.01902626038527836	-0.004723085917562826	-0.03591191608899623	0.03647145803201792
0.004462946471631814	0.06560616423061322	-0.08939650080833217	0.01983753493046057
-0.00866743940224949	0.09361309042904993	-0.03288160449881503	0.01121840166050854
-0.01735030935774829	0.09561508469851046	-0.01721340551341808	-0.02273492625336397
-0.01191267010649508	0.09399843185901746	-0.01317898303839327	-0.02585078470678754
-0.03624283859741721	0.02815940495147832	0.1366618415354386	-0.03333361265629842
-0.009615355662285947	-0.02185055734961592	-0.09376369827363638	-0.01174530884011017
0.06108452690834175	-0.004991450775159317	0.06414134512236279	-0.0298453556048036
0.06533987313825947	-0.007192539798512622	0.04291955158614068	-0.06493114720901863
0.05436832567151114	-0.02119288920321112	0.0927084301965569	-0.07956699807977254
0.0203367765983577	-5.642997026522176e-05	-0.2188511226218099	-0.05512399932190247
-0.008672336480984304	0.00907957928732215	-0.5296317014692747	-0.0629612549526669
-0.02522005741237345	-0.01664623835498559	-0.2327867958585245	-0.04996660623512304
-0.03710888786265547	-0.03784279485449275	0.237612119916194	-0.009931518245168441
-0.02062163486220608	-0.01647602137407803	0.04698029948238615	0.01601245000273476
-0.007497979407307513	0.04628737721683166	-0.2637056390488017	0.008899767852534799
0.003365497976430472	0.06044731730925833	0.0969630254185979	0.04874679470429246
0.01835857812631608	0.02812132792740902	0.4599096904042013	0.05249160580906055
0.0329563253008945	0.00778112768798053	0.04388180433061596	0.008151830493273633
0.02596256210136465	0.003672449093975509	-0.2301300861088425	-0.03136413575132253
0.003634176071660309	-0.02649028004080953	0.317366398429107	0.01296692683658839
-0.00791211862198922	-0.02638826836256418	0.2265834833031397	0.04595262491363047
-0.0008314352970722355	-0.01676330951956529	0.2279337872510594	0.0757597945840109
-0.02018368034350479	-0.06061043426618828	0.3318131298359756	0.04178785457201595
-0.01282351880388356	-0.03693767546292936	0.2052296212107131	0.0452424848124135
-0.02591911294233687	-0.02662002661789349	0.0226721735398322	0.06463805740332458
-0.02264357372815431	-0.009793481956195067	-0.008778896952401211	0.1309408259542239
-0.01293363312324509	-0.009600181267049876	-0.05275964280207653	0.08847892629975217
-0.005661900213210798	-0.05795906783734123	-0.06658934357697877	0.006129704144177737
-0.00761233055405625	-0.09401374673305214	-0.04041781319155362	0.04401966020252416
-0.02679478027458446	-0.121370402958255	-0.07186237058308975	-0.03279127676009216
-0.02306112648455011	-0.08739502209780133	-0.1530608906939337	-0.1138845335892772
-0.01430364397760612	-0.08109731957827578	-0.09988060251982704	-0.1197968675050384
-0.002582467689583459	-0.09621179421856457	-0.1482531606126054	-0.0453767105267294
0.03415701187224057	-0.01026562712751534	-0.2189410505539996	-0.01237255207177429
0.06050841317334086	0.09594381411287431	-0.09390204086815836	0.0385947327894598
0.05449750177614303	0.1282501806243345	-0.07100368140568863	0.07719556184297283
-0.0016811153559348	0.1060162757388355	-0.125111504580282	0.02004343312569772
-0.01496768718957428	0.06118458483870417	-0.01831513713590503	-0.005460795217185981
0.01348892026889565	0.03129207036145416	-0.03568302754009822	-0.03430260259293705
0.0276128641060715	0.03343019520595931	0.01340791582003314	-0.06231219886695538
0.02177000310381874	0.04894454807264013	-0.03878357880284906	-0.03392194290332931
0.03396308325465758	0.08271260627480508	-0.05892174778780075	0.03760306096427325
0.03621188573465255	0.09336447568191025	-0.0789916962428739	0.04514880063139409
0.01440083990749314	0.01280837661813765	-0.09728775141231549	0.01675624638885863
-0.01847581818138646	-0.005131781963911697	-0.09963527439284858	-0.02825943859684926
-0.01290485162573095	0.003670102253539433	0.0373676703842566	-0.08195540352187533
-0.02600978798532232	-0.004960199737321362	0.09238521808230009	-0.1413817281489116
-0.04496317747303652	-0.004742694544348204	0.00205181749721634	-0.1461396122664719
-0.01853125243120288	0.008061180384029986	-0.07785593842279817	-0.1077665479199942
-0.03757589390925986	0.01870558089731678	-0.2343029872194625	0.008943463491798871
-0.07464854552121723	-0.02280004163733472	-0.3977878390102209	0.06978089860813716
-0.03526682928870576	-0.04021866163294923	0.02677913343151299	0.06278327153629662
-0.007150936692727764	-0.03959703055912629	-0.03642010448911667	0.03241246313971114
0.01245585846288477	0.01288013022121787	0.2228202872255154	0.06087038351304515
0.01758627809085699	0.02421660181383627	0.4559849625318284	0.07013570767261432
5.291965656516846e-05	0.007599584056463182	0.2868937447134403	0.04061658941617961
-0.01465982002312391	0.00274496075084925	0.02792298968910777	-0.01351655839936372
0.002308882077077931	0.003242772633444282	0.2463377908463755	0.03126372178933196
0.01093966249339376	-0.005622442860926949	0.3198793746723892	0.04698653032596162
-0.002910302175463079	-0.04498265335800441	0.03304925003851207	0.0737334056886127
-0.0177319467798054	-0.08442079327485952	-0.03531340864871967	0.02102981804275613
-0.005446527603495942	-0.08142085907521752	-0.08916648346578855	0.02448682758865843
0.02739636503667518	-0.03089023463761835	-0.2177351567838622	0.03741210917488284
0.04918772573724266	0.02699955330241629	-0.2411031299622775	-0.04434096256743115
0.03667346409251242	0.06179534381850742	-0.1829682196979457	-0.1254246813504222
0.02415976144029285	0.02651144252599764	0.09788318740965085	-0.1178331926718597
0.003737366572908117	0.01057244298817683	0.4564576777316828	-0.08840714193214744
-4.426335915676244e-05	0.001870426904960507	0.3077342038129852	-0.05077721972981324
-0.01489938749863979	0.0168195923777588	0.04661446694268298	-0.03406956456870397
-0.03620017194657599	-0.05731459610541578	0.01490063943664341	0.02674742902438939
-0.05134101767194003	-0.1057408390670316	-0.0959053463467426	0.02299657410065017
-0.05989158055729315	-0.09819196916414401	-0.1456297657663354	-0.03173119451343731
-0.03710914494239216	-0.0500176277042978	-0.2248477168728515	-0.03849212965114324
-0.005913542105622956	0.01421475752044974	-0.2232366298133509	-0.0436692956445394
0.0258375769732451	0.05018367710538334	-0.2898818057350462	-0.07354005904566335
0.01784781415465321	0.04604799846992871	-0.291560151950599	-0.02474463810837957
0.01620368468736893	0.05134429875119175	-0.1951602494215532	0.03243307492965921
0.03263894003817971	0.09516430268367392	0.7463806096061234	0.1020163619677035
0.02753803776261361	0.1334570541738605	0.4298300346845493	0.1044573601471413
0.03630319078006539	0.1157383623421306	0.004464001345664893	0.04536651747875199
0.007408275633627268	0.0354729331382288	-0.01197998658623911	0.01940036866477185
-0.01326983091386089	-0.000316682728396616	-0.06196771483592097	0.03817290360495477
-0.01369335457620188	-0.03702601480109857	-0.02935198794926228	0.05149640847980368
-0.01068425401193532	-0.03565055127792691	-0.05600924311736892	0.04759173742667233
-0.0003648833520661949	-0.01970744843375727	-0.08407455320750595	0.02387066867904122
0.01999042733107342	0.008943067254678876	-0.03226564765884127	0.04447956118347075
0.05794140697051375	0.02098992360222631	-0.05391771144285216	0.03959240946122834
0.02635047858782253	-0.005237836013712573	-0.1239910256659089	0.01941827789605683
0.02828302453315313	-0.01351352076373458	-0.02765391519018793	0.04992396574121892
0.0242561983414587	0.008622249183927521	0.101654000175551	-0.02013540800489829
-0.01597888411507357	-0.01636655331198278	-0.02146047514278429	-0.1099880824584796
-0.003646606476041456	-0.02870377288258733	-0.1476555368157009	-0.07176935644620423
0.0008672214097574485	-0.02852632882427572	-0.06788002161399018	0.01595854891864965
-0.01406897872624367	-0.02055302735160014	0.192928588417829	0.01953137442558177
-0.02379973980886562	-0.004521665745153814	0.1283177203393468	0.02657154134957913
-0.00327510290301597	0.00344180348163681	-0.0004151374041477707	0.02667391748849596
0.007707305410057807	-0.01219754287271005	-0.01651769410236279	0.0329746041899426
0.0368167080430966	-0.03131405291968808	0.0153738144412257	0.05606852471348049
0.04721291386966165	-0.03827107824654421	0.02878097654868665	0.04522041363127281
0.03339071980615227	-0.03254301050018193	0.04276681502336118	0.02325229577949758
0.038583177620485	-0.02232682425340973	0.06019646324496973	0.02391917432706561
0.04042112683519467	-0.007763836571563305	0.04993728581256302	-0.01154869206754953
0.03773356155690626	-0.0008401327304630051	0.04559474571023822	-0.0338868349181705
0.01414279845297577	0.03399463859349655	-0.00268029182943222	-0.03073470065785686
-0.002347339724497376	0.03583936247138557	-0.06334907285248445	-0.03603029141188293
0.0192652354370864	0.04044054696290358	-0.2036595846024111	-0.04521482547066369
-0.0520701719334779	-0.03812095229175689	-0.204769438051063	-0.09459689017927182
-0.06332460480256466	-0.01907138683165432	-0.1633212331045373	-0.1056909322534028
-0.05772081222915712	-0.01007800240301943	-0.1522902403218531	-0.08269352184345981
-0.04186627618998485	0.02692353034590343	-0.3207562797655577	-0.08502343532659089
-0.02528550041415567	0.04246564405832835	-0.282842398659787	-0.08674419573729919
-0.01396446153436204	0.05111186227714827	0.3298151211094509	-0.01777852900892907
-0.002242786230898486	0.06372163405550768	0.1682395681345993	-0.005064375705366734
-0.006949373225314659	0.04084815997277105	0.1275207925936863	0.06412634214252474
-0.008406404180562186	0.01219879766868431	0.4176694800479787	0.1399771988450045
-0.01715043033019306	-0.000331540932585071	0.4299993672904909	0.1751472945197141
-0.02301658258922395	0.004332374220703657	0.1910656961294964	0.2056756900210592
-0.007881914912194969	0.0002363051803426475	0.05356796066544234	0.1374921033481524
-0.01746513019325504	-0.01802431618255822	0.01262071819013209	0.02756968205166261
-0.05565270329378123	-0.07719749120670426	-0.01401406394825237	-0.07382465101769833
-0.03026721196491056	-0.1112184879971349	0.01924309744913103	-0.1693594688083544
-0.003941611542109908	-0.1207457276950022	0.001163155439348005	-0.1541366941513939
0.002870890126375844	-0.1036164861320284	-0.1001772881497462	-0.08046680101012826
-0.00202981711653912	-0.04327726588780388	-0.1128697126746923	-0.02962434786964104
3.555168778013817e-05	0.02470589517911443	-0.152321468019368	0.02208103954246283
0.02510937515873169	0.1080188782195566	-0.2192003798934018	-0.05585715505836452
0.04564374576624668	0.19727225172894	-0.2438480322221201	-0.04753582513474904
0.03605766491533309	-0.05993351632356617	-0.2299244582835013	-0.03870622486618989
0.03603459838068452	-0.05547533436717297	-0.09238542378941302	-0.05067895859807695
0.02516170976833686	-0.04922404566761435	0.2339739731135135	-0.0131047667352088
-0.007580798326315152	-0.06653613574038034	0.6182121793611201	0.08923979873533017
-0.06516634457032842	-0.07399223371078542	0.1289832368232747	0.09303618445319463
-0.1005715223610073	-0.02290086235791394	-0.07068431513360286	0.07018660833032728
-0.04045583100423844	0.0645004221286028	-0.07264987078403816	0.01505665750402905
-0.02521309338373202	0.07923804333281484	0.001170876605385363	0.01015998037144736
-0.04022554038623655	0.08403312050497933	-0.008096412389929536	-0.001459036826632613
-0.03240396663003391	0.06597091002053865	0.007928747115079338	0.006801833902163568
0.00396104510850185	0.05284315086743677	0.005195146611005122	0.05899156844061007
0.05762080248004267	0.05732336399309706	-0.06967524663513153	-0.006123308687790614
0.06530208261947983	0.04869272770264392	-0.06073709300860559	0.01506059035039249
0.02374458297514948	0.03182438118738118	-0.1140819068850606	0.02334453516985347
0.02705314852003341	0.01820286390439593	-0.01980907440812251	0.02306487273545194
0.02230856772820512	0.00810921372839008	-0.1588293989374727	0.01485329570582208
0.007122903235061684	0.002089442673733747	-0.26801237746092	-0.02400515284832053
0.00595188750557294	-0.06368333397469829	-0.001606921927534425	0.06532316245483806
0.01335661099906049	-0.1142334905681769	0.1370174723220474	0.03619281932827601
6.869640599796076e-05	-0.05618218561156271	0.2352827431322282	-0.003537646766328615
-0.03082349499469394	-0.05339354773989245	0.2715284783627843	-0.005644486350912237
-0.01992655487148844	-0.01600793372055958	0.01816664950380346	-0.03434508547360514
0.00364017424674522	0.04817041979616385	-0.08036476296917099	-0.03877044462849393
0.03878041403122601	0.06299521836209025	-0.06792204097954631	-0.03245243108501817
0.03569871123700498	0.07901771864500558	-0.06665209161069914	-0.02593943920648369
0.03681653453094152	0.0689259362926469	-0.07272219386581735	-0.03975758406539562
0.0466799445341777	0.07257556468391818	-0.06808502303102805	-0.04385589210756125
0.03405274636247931	0.04426884750935871	0.001825012822125998	-0.007480073987550309
0.01785918088182286	0.01419389168366954	-0.02360699102977418	0.0301858299437374
-0.0009000137963625738	-0.04027608531037877	-0.03442237794100494	0.03727668627554147
-0.0002375947338658483	-0.03336670099962293	-0.03071124108561804	-0.0002430997001672353
-0.01147997829214131	-0.03313795820666365	-0.03161276990493306	-0.0201933203736724
-0.01901444234413724	-0.05962979448769658	-0.04140832253181573	-0.03872996056985236
0.01176130282391752	-0.05061020008731484	0.2058851811973978	-0.06052778734864553
0.008938243589459265	-0.06386341195566234	0.1241793430083634	-0.05147979296678638
-0.006106717774159968	-0.07382103896880672	-0.1102486803148071	-0.006990932508718918
-0.03696628319888716	-0.0794775109273059	-0.1891148042088311	0.03370142721704391
-0.03153507473580357	-0.09717053111101377	0.1066537762408379	0.05551691161707236
-0.02031143442627951	-0.09125198376061876	-0.06182018256698872	0.0004283698195836072
-0.00424402877516205	-0.03068870606090633	-0.06099730263576346	-0.01565413541216411
-0.02116816105233895	0.006276583638880263	0.1220884399972059	0.01897846096917475
-0.02004478652049808	-0.00837115542469203	0.06953801213504064	0.02237091258393957
-0.005642010142301384	0.005682427357516835	-0.0004929396998806044	-0.01136330818576239
-0.01849018799206244	0.02243907713744794	-0.007235593783604122	0.02572712655522575
0.005929449846104741	0.009713032170881679	0.01123841284959461	0.04882526652944941
0.03672960887373164	0.01394179298952336	0.001232209722301947	0.02779809899313431
0.02919628310976824	0.008355597799765177	-0.05143102152296954	-0.03207014022753191
0.01956054158803808	0.02273581815670894	-0.09621197124511476	-0.03702923065181125
0.003524585223282237	0.02533173734485476	-0.03631930491854914	-0.03263476145098675
-0.009833073588187691	0.02879246271930292	-0.009475884030911839	-0.02110856818971098
-0.01986174502835409	0.04737866442828142	-0.004605525158119253	-0.06287727868586378
-0.01523187775925917	0.01105928250193611	-0.06502315294360531	-0.058293160308221
-0.02042568784690137	-0.01863628320462863	-0.0510515056887585	0.02191194774811575
-0.006936222484610642	0.01378373341465225	-0.1186136681064137	0.0466917886579392
-0.01485575127809088	0.03139127567380219	-0.2552698126816171	0.03396013820232114
0.002325719013506131	0.05076977864265234	-0.01739527915289576	0.00828230958310415
-0.005722438391062278	0.03731004907479564	0.1888874635395124	-0.0452807111585834
-0.0007800472053513355	0.009594995248169631	0.2040323691580823	-0.06634045834282744
-0.003835731051158315	-0.02858193202827043	0.1431778291126414	-0.05675351518078267
-0.01182287577033165	-0.04481186623731689	0.1116099857289215	-0.006239434963301545
0.001941695408206161	0.0166692393862363	0.05040233894660705	-0.005063674143295996
0.02857109718919852	0.05059739193047414	-0.03840327069267927	0.001836399693686234
0.04330662580637354	0.07478689378054265	-0.0416861087965872	0.04664243264558611
0.04346795402467214	0.1213865764540876	0.1946660816369417	0.05827292655079772
0.03187636565867025	0.1151101307570333	0.5075253879150116	0.03698256029767159
0.01540274794116929	0.05785249266426025	0.1707879458664132	0.02433664327647315
0.0202868437801293	0.005193286938055229	0.0738226878011438	0.02235640526121301
-0.001618979595096611	-0.03879195927481618	-0.0467930437660236	0.03735924901678921
-0.01624992072831163	-0.07416649348317982	-0.1043143752299776	0.03264817093262275
-0.0240613168468254	-0.07021667601327232	-0.1621285957248199	0.0255514252265863
-0.03083663413431152	-0.0511098026008828	0.0130096734355422	0.1086651660592307
-0.03132655714625726	-0.03618191218553425	0.02203450311965374	0.1067244923862039
-0.02415576352983628	0.00531016707218205	-0.2677022570894364	0.01975927356191449
-0.02069301615844864	0.003600505791226394	-0.3455718056720785	-0.02626998515755212
-0.03931414391846368	0.01973655215574466	-0.2074605474407931	-0.08949123093709513
-0.02247522063244643	0.01608253019968981	0.2875607758921696	-0.07989417497098801
-0.006159939400662029	0.009596522165701456	0.06303988674880494	-0.05338272275018254
0.004065816932110938	0.004083279218925785	0.1142744084536006	0.02579181304402186
0.01150978970603076	0.01159442377345433	0.07529370599221193	0.07614082726607244
0.005414654122680479	-0.004791309678484746	0.04432548186313908	0.07768341059687683
-0.03294941740636451	-0.01364572423056811	0.04268546097202576	0.05287087608271612
-0.02744465410181179	-0.01319449954601858	-0.01832673857602956	0.02510637551124708
-0.006429016270761444	-0.002700295795146678	-0.02502807998342747	-0.02003430853474875
0.02000151921026128	-0.02199030661878218	-0.03705991577967448	-0.04644583835624684
0.03990747801814779	-0.0131029421734612	-0.0750249155709402	-0.03914399842570566
0.0289008589674083	0.01610039235183207	-0.03909280667148484	-0.05611525493622529
0.01425611812824149	-0.02575566433006949	-0.2090156864308684	-0.03296795342841823
0.008675465433839603	-0.05413257208361617	-0.1839312214844344	0.008163862231971197
0.000455605938423812	-0.06606999122769765	-0.07264039318868903	0.01034191969292429
0.0113879233574909	-0.06745159434523154	0.01272287181197803	-0.002580720929495771
0.02109512376114982	-0.07359109639900091	0.1063133594901531	-0.02109477293325318
-0.002721707806418449	-0.08657050377381298	-0.05328334340896841	-0.02726288885080671
-0.008628238375770035	-0.06612033296411014	0.02708968474199308	-0.05482694401928521
-0.009145628895497877	-0.06005957602874332	-0.1090606238273577	-0.04479502700941236
-0.01124160346750486	-0.03520173694860917	-0.1237172181038209	-0.02006586404194274
0.004032400615584747	0.03465897518595791	-0.02601934250611142	-0.002019024623843701
0.001968368933224974	0.08256241728154677	-0.0008016951614246287	0.005900170409277563
0.01010252494801176	0.08249775694282657	0.08089125240446822	0.01457917471478595
0.0227594339780771	0.1138365341476035	0.2303097457448033	0.03927410522783534
0.02778351056040537	0.1050973155860955	0.2338604927131401	0.03430118924391531
0.03841238014747557	0.08010524202456573	-0.02135589907530988	0.005064081646625721
0.02687978528683818	0.02869595146858847	-0.06302772161407355	-0.05067772006918211
-0.02598276743654018	-0.01138129926271625	0.008662986052951262	-0.04748793557373417
-0.01804329861842141	-0.009614047779409315	0.1514652539652823	-0.009873182851129611
0.004693049699966263	0.003145763976844405	-0.001653281524725636	-0.01653531667139137
0.008087545110504628	0.004921501789696748	-0.03614714664276469	-0.02891047760006242
0.02802344257028902	0.01597104554189347	-0.0008665617588777871	-0.02272075592261095
0.03528088337209989	-0.0003933203059826879	-0.05459662201199137	-0.03225767671217723
-0.004672398364427602	-0.0287539243505413	-0.07039902022841896	-0.04739232296143839
-0.07945957803174501	-0.01778224386718117	-0.03909105720773428	-0.04016001292470898
-0.05559954222436035	0.01309804682876691	-0.02599124677492157	-0.03901722456330003
-0.03297138355889072	0.01104058661095399	-0.004344210254061506	-0.01622917114203965
-0.01804011835102422	0.04925652539142752	0.07605824800943536	0.01526435454634168
-0.01642036626301227	0.06741021710283351	0.188967710456825	0.01862600285500975
-0.01572305911479104	0.09171206434896137	0.1295979814478309	0.002092954447796217
-0.007920712269093579	0.06682068459577625	-0.1568985847611917	0.06591412385771196
-0.001517971623825024	0.03001188958797389	-0.09477411491176629	0.07538679881762415
0.004017881233049523	-0.02700157832196158	0.01411409142658891	0.1269230738125063
-0.01814571449117323	-0.05930595357117982	0.01699450813298609	0.0806839719375133
-0.00399399475541529	-0.05427929840446476	0.01496309879201358	0.1083099049944022
-0.007338948927898868	-0.05377564846342338	0.03309578406192346	0.08498233399622748
0.01438484207134664	-0.05879844849847342	-0.03195206316425119	0.05585764529608225
0.03161761099749445	-0.0463112796871965	-0.0345844395448326	-0.00677580159173609
0.01472357689776046	-0.05556919330451981	-0.05249979912552968	-0.06249442256856642
0.024355362940889	-0.06432983813828641	-0.08292242355741825	-0.1017559780781831
0.01982968400263067	-0.0337109044604231	-0.08390499965000212	-0.1043156565413523
-0.004542268099493778	-0.04277284898299925	-0.06056859810729305	-0.06326244742451057
-0.005169618758684378	-0.05469451884479438	-0.1115570124667768	-0.01913958895934532
0.02095476334958527	-0.007754127832668968	-0.0502630843309428	0.1169512385056682
0.02624786250672522	-0.008414514099017525	-0.02054246224549029	0.146413945926649
0.03566282761494752	0.01714747565616902	-0.02875613710159332	0.06054774049534713
0.03182606938609044	0.03275947972972607	0.1026813818395361	0.02074449845869879
0.006349888663546289	0.04272357809829285	0.1194228139065839	-0.06258068094718382
0.01203966194247362	0.01270317219145163	0.2349245133972496	-0.09092902307743478
0.01600200844599418	-0.002355625549292232	0.02650059295392442	-0.08042821729127746
0.0007936080933818898	0.008802555594282608	0.01825771961798207	-0.04827113490864676
-0.0275001259359695	0.02843216008699915	0.02646011475167229	-0.001663528712869647
-0.04715556203022271	-0.008444178402725327	0.03028881244114671	0.01289581876492339
-0.03148235254871565	-0.02487220367095497	-0.0377974090353999	-0.007990165167440031
-0.003729208608261664	-0.03733934565352601	-0.07566805167576425	-0.003819123070145172
-0.01690483453817525	-0.01302688614049518	0.01554176124096563	0.002231529717654787
-0.02305133020472454	-0.005299074305307985	0.06431779881902677	0.00186721074570282
0.01291248023719123	0.01341546103397603	-0.03461963883908993	-0.01473524911679796
0.0262934544395976	0.03063507138110578	-0.07972196677879156	0.01319542465772005
-0.003927012795371655	0.0344717584199821	-0.06205462167282437	0.008580475179108409
-0.0131514400921057	0.0391941342134783	-0.03504237202154484	-0.05874875296702754
-0.00949667511568182	0.03320701146135736	0.07163889905642026	-0.0760815554243701
-0.01574549245226039	0.03695249340124315	0.05840944796581125	-0.08357183884330738
-0.0122231191915331	0.01776221540332965	0.0112457217104462	-0.09955114065524613
0.01711047761225447	0.01593582577311356	0.03589778820552778	-0.005511415588390588
0.002804277640040774	-0.01433581723793178	-0.03068346225442944	0.04904155095144582
-0.02606341698412139	-0.07543960558958296	-0.06889759814988375	0.03619976251589816
-0.02079294510188933	-0.09303866980552933	0.05147434708201198	0.01945109701693378
-0.01530642184127034	-0.06823742331913514	0.08083683410757049	0.0416599704915596
-0.002774207937255158	-0.03041250900671747	0.05301350944173921	0.04113817003852329
0.001493955325299718	-0.005439127415389793	0.02123542541020104	0.01541341139436415
0.008896153873228094	0.009387089436517204	-0.07635461555039882	0.02138153566879885
0.009997556394891352	0.04654265153459508	-0.0858128781588831	0.00367391872139951
0.009856122055284135	0.02311203794025834	-0.1021145941139008	-0.01159791969964605
0.02215325088039766	-0.0008627963097829442	-0.08205970857293603	-0.02070009386734935
0.0345367729013312	0.03516022991495754	0.008012610354480917	-0.0448602306897215
0.03224111811174592	0.0355503994591905	0.1260774385651987	-0.0590439543408294
0.01723667186246865	0.0192094966707868	-0.02692088839981389	-0.04685140820822897
0.008730880585573149	0.04950483023664956	-0.008322455705438915	0.01496363809783942
0.01973430532418457	0.05391323092611043	0.01339579680465238	0.06443752034199343
0.001601402755754262	0.03713075144729408	-0.02509682624890908	0.1057431976476723
-0.009376283480442112	-0.005683959786415137	0.2048243162334745	0.09977811125820392
-0.02601249229653424	-0.03799988592179002	-0.06276384056804105	0.06152396977934119
-0.03044444059427774	-0.0131815422006037	-0.002851981703661339	0.01436856181515806
-0.02632056197712014	0.00227403629143425	0.07848810449781027	0.04378230950369634
0.0001796909314045231	0.01102711673178965	0.07287148181433996	0.0586336629335516
0.01610867535726437	0.02125719718719258	0.1650614525293196	0.05132106326110161
0.02872447169155547	0.01070560221966495	0.135694017389945	0.03973305825776335
0.02458363142232955	-0.001768501113384713	-0.03747925890881513	0.01059519509909898
-0.008798755723055893	0.003230704359688872	-0.05339550548903314	-0.06352691573406929
-0.02525153515678141	-0.01840401026177264	-0.1280238630385028	-0.10599079572146
-0.01576233240063302	-0.01637317774311915	-0.1510583686057751	-0.04905638894834807
-0.00317741963392247	-0.01229170261313384	-0.1465358131740394	-0.02213953289088437
0.0006997362188948142	-0.01764668884291425	-0.09559736815564115	-0.03798120969764827
0.0001510598726707194	-0.03376622066330352	-0.1131900510542434	-0.0609418180455019
-0.006785572554256809	-0.03236037903598112	-0.05740174190529988	-0.02143090583236839
-0.01701280764654917	-0.03003942915362236	0.007019310740994565	0.02343675646347789
0.002951349672303374	-0.001677470938321521	0.1772192531412963	0.05706392618320429
0.03793493156708955	0.05344592838850618	0.1156482721864232	0.05856367442624238
0.03373049642417272	0.05564270183158885	-0.03461955028692075	0.02655518129855415
-0.008937519815961885	0.02300684484466414	-0.09141861591546144	-0.0009932696979130184
-0.0321218492695611	0.03412145797077603	0.1401790972758732	-0.01617062778151759
-0.01364888056857071	0.07885867157840461	0.06033765588371846	-0.02662659620415721
-0.01638717756615823	0.07529546250477756	0.03442535310741573	-5.269977923598191e-05
-0.01551507855883436	0.04346211597198894	-0.06981991614577131	-0.01863303372097323
-0.001981551857825435	-0.04411986882143055	-0.01465276621772473	-0.006481023737379366
0.007396135096009277	-0.07938569564795853	-0.05517748935573652	0.01733086410475055
0.0155161779632114	-0.1049429831493964	-0.1121965815099037	0.07176630521249
0.0253074187518942	-0.05327612999943854	-0.1134926701942654	0.0629715566697101
0.01583270087765263	-0.01712282834155462	-0.1521782515025311	0.03357081372270874
-0.002719790782397577	-0.006681223321994898	-0.1268157737230162	-0.02496624355962019
-0.02375727485680731	0.03461562938813561	0.05434483428748031	-0.04729984556076998
-0.03816634522451987	0.04169231411182402	0.2407947308163998	-0.1049096028056758
-0.05822766538902045	0.03572596305541543	0.3811286851163671	-0.08434127129964616
-0.02380175697172901	0.01660856281377723	-0.007661619685353642	-0.07340457622049294
-3.539364591979269e-06	-0.006437832309950846	-0.1365287514171259	-0.05542384378410738
0.00928093532013665	-0.008019846106878278	-0.1779304290472444	-0.04947495579674117
0.02430111530543021	0.00144888565049096	-0.1802960284891965	-0.0312958868055243
0.01064933320485872	-0.02161606376001645	-0.1279045377872932	-0.05418648822733119
0.004519986618215639	-0.04570863253683072	-0.02305004064829091	-0.06606428495379423
0.01709077989813245	-0.02576523972107072	0.1453814769252501	-0.03863016536360477
0.01497924647660276	-0.01152572629058507	0.2495744119801792	0.00995628846311267
0.01302759169907368	-0.01518235970902045	0.2006248039262494	0.0144137659887042
0.01076410913520442	-0.01704623188672885	-0.0128963449517609	0.02866539865058374
0.009084449005217817	-0.01149938804841508	-0.04288990618043022	0.1238702300694934
0.005001572743420221	-0.015877077987917	0.02921702792975821	0.09956039264553856
0.003710239419524634	-0.03597384313421634	0.07371589847559737	0.06845429863270291
-0.01212287816082942	-0.05088384458640654	0.05868632868801039	0.06153974621260457
-0.01573052535044294	-0.01762660879888441	-0.05021676383512085	0.05885368307566813
-0.005456171463597186	-0.02836283716143872	-0.09813906084895424	0.02586388593016112
-0.01293131382961421	-0.04694736257767304	-0.0960104912110569	0.005090302784552215
-0.01376460614243437	-0.03914750792185965	-0.05047817238728243	-0.002312466384570626
-1.433521551262237e-05	-0.03202800710949921	-0.1239878224061474	-0.03453085346240129
-0.006900573783955753	-0.01802802840582848	-0.2026315549316877	-0.03752286628048733
0.01813645670030177	0.02619957227210047	0.0256107470763688	0.01700898761389252
0.03029765520515064	0.05890739772132159	0.1128721628529067	0.003995114412269945
0.03361774160092608	0.07656418246047303	0.1443448638359706	-0.001941184355599524
0.01680756704597009	0.08426655403934072	0.1420566936996009	-0.009330241759747396
-0.001308015550871152	0.06547269284171295	0.2219432037531136	0.01826479103861198
0.0001196529007573873	0.05145405089358847	0.2113826568984056	-0.02763285134972194
0.002988404075021517	0.02205017116761178	0.0326745433507056	-0.05773936554888232
0.002656841163811095	-0.008366838354965283	0.05026365540430435	-0.01926583384572089
-0.004217540218959851	-0.05036582827800078	-0.02188404300334531	-0.01149836694282494
0.002136303496612693	-0.1356281218651833	-0.08878216920573684	0.03039622470451102
0.0283235462577527	-0.124770447105032	-0.130409843258482	0.1194285500876745
0.03308406363123995	-0.04951957126430748	-0.0201104948365594	0.04698063521085966
0.03216393366796776	0.01569599021934844	0.0276078433107037	0.01242103931178093
0.003471858468929105	0.03868615600099824	0.08612889432643335	-0.01940529089443766
0.00312354102392762	0.05178766524554167	0.01553977501782515	-0.08681206336483133
-0.01646830039653763	0.07463713995504925	-0.05802837153324304	-0.09083264736771419
-0.02689086536005824	0.07198727881901204	-0.09810379998507883	-0.0434633029526326
-0.01716935335496237	0.03568113530869221	-0.09567311155005893	-0.02699412155369282
-0.01950610568722742	0.01938384188324175	-0.1118640746146349	-0.01298421651731073
-0.02801090265940727	0.01800194226348105	0.04370473194773596	0.02031805049699524
-0.03813835300618339	0.03393383574168912	-0.08691636371818801	0.07633741159944903
-0.02249037365159448	0.05190607076159015	-0.08365686128089912	0.08234833902807559
-0.02723401126610682	0.05165469985967815	-0.1325941012155581	0.04277810260641225
-0.02668512006684809	0.04635502413240839	-0.1309004898709313	0.04476454208954905
-0.01696739460286853	0.01007356681050432	-0.01647594222270998	0.03349785010459241
-0.04117722185926202	-0.0001182338538293995	-0.004615667273501181	-0.03687534969033941
0.01391280824998244	0.02689444564958517	0.02895433593105955	-0.0879753709339281
0.02030022769894642	0.05225770421197697	0.1539412837944887	-0.03526136145595659
0.04047274053623369	0.04431238556318683	0.1112616220574945	0.00075698069721854
0.0319771314048699	0.008379483860959379	0.02397737695306215	0.005171568409239447
0.0250035810337808	-0.03472679469492958	-0.06370979496500682	-0.05251535603593992
0.0107380757274507	-0.03829019246288774	-0.04680370701738382	-0.02328135265793143
-0.003705372667019227	-0.03307507664256681	0.006307967768837496	0.02948304023495169
-0.002726193682292181	-0.04701174861640968	0.007448811513115576	0.1170600718449557
-0.0116309381872404	-0.05280015243241206	-0.02958566301445468	0.1172517279212722
0.004318336146388114	-0.06875118426587813	-0.1288324142747373	0.06619895964473431
0.01892870581115215	-0.04604127549660478	-0.2366438307824277	-0.02430390971882701
0.00199232137104188	-0.001432939363120656	-0.05050687982320386	-0.1117286456597311
0.01054384943996137	0.06183786512629965	-0.02521530606142889	-0.1275631408847263
-0.002308439803308731	0.04015584356690532	-0.01365984018872018	-0.09130828082662487
-0.009514678508698048	0.01037345689179132	-0.006491323495201106	-0.01776087850792612
0.004020553035830311	-0.008074106180103791	0.07952874084771577	0.0075965305824366
0.004945583681637442	-0.07509174465199529	0.7209919307888927	0.07604825462772627
0.007929462841125542	-0.09791328405669342	0.2295843785917636	0.02152380879457728
0.007859658917846053	-0.07632911855987351	0.01817399863242167	-0.02871365581989377
-0.003788209240835731	-0.03625972564515308	-0.1581876169867509	-0.05870840817590201
0.004329031431843506	0.01301496584923851	-0.2158587866978724	-0.05124980039651861
0.00909298235009609	0.03888692489462627	-0.1133979108359259	-0.0194322023529586
0.01353030791022761	0.08376498708407036	0.3378434660091503	0.0421389288312895
-0.01661754156539719	0.0658820769695611	0.3400876317258896	0.08863941993546365
-0.03175994444704941	0.01935142933082132	0.05618485003368117	0.04316898777511918
-0.01115156630188303	-0.018508379398203	-0.02360873062805406	0.02020781154466015
-0.0158292595211796	-0.03681307523428324	-0.07488982321061133	-0.004316571280472079
-0.02134750841193323	-0.03463109384618281	-0.07772199213019758	-0.02410349609565918
-0.03008127603698184	-0.02195153233779904	-0.1467236373500223	-0.05254248138166383
-0.01987149188242975	0.005958302973570293	-0.1576217504404497	-0.0363539273543385
-0.002494573075395567	-0.0018282411725908	-0.05008162525081634	-0.04906006922163483
-0.000768141733422083	-0.03083098137090966	-0.06198158285453678	-0.03369783384210388
0.005305596113532689	-0.03014579620627691	-0.001579314598094014	-0.02241877760787466
0.02344788906052444	-0.01688413609873602	0.3273601108076408	0.01479248852547294
-0.004318872847713362	0.007516396705303333	0.2821814945106372	0.03205798072951612
-0.04160822043760434	0.004365704233978911	0.01438232229735944	0.05463817741112048
-0.03247841983827651	0.02386524945855403	-0.08588241190810161	0.0770624470162052
-0.008563424040155549	0.07110395638369975	-0.1111290561961858	0.08471381747567584
0.0008975919641165358	0.08007541240732804	-0.1476951293387007	0.01281302258357156
-0.008785519721351862	0.08601264560435774	-0.1475031427520056	0.000973583077356786
0.001817433640953949	0.04221461881832288	-0.1332426138174464	0.01459875255886888
0.01450176760134208	-0.000255166876638028	-0.08393128083198959	0.008604829062128278
0.02121930758474195	-0.08198028569292017	-0.07490121655705123	-0.007042368117147053
0.02278349093359115	-0.06537612928262827	-0.05570947808291997	-0.008346991648685766
0.007668116580779354	-0.03387496893794701	-0.04988090344676526	-0.01885269115565376
0.0002837452965147316	-0.0008443798871928107	-0.05477705847670522	-0.0466786427952461
-0.0006580352572166191	0.005961779016683653	-0.04998838357079215	-0.02889947284416318
0.0137003637147888	0.0002422782145165453	-0.05429489654179141	-0.03281889877742766
0.0300654610702599	0.01972260853598606	-0.05450881532179877	-0.04287452565673827
0.0299793437588785	0.01276920792870894	-0.02945929035497812	-0.01600948756357341
0.02912566957208302	-0.01128731678038123	0.02617649438199327	0.01949873671721527
0.0269079335897655	-0.01448409684140541	0.1503273932446519	0.008525970816476446
0.02058580424867137	0.01468473633694004	0.01821428520714632	-0.007967134248688664
0.02665487312224778	0.04655911405662687	0.003198828089679417	0.001317916766582363
-0.009276266940526304	0.02289673392355201	0.00701192053205185	0.02114568896569327
-0.01205415565443208	0.02646778829588392	-0.03847689403899526	0.01451416234469982
0.007330748646553843	0.03303382609864987	-0.07036220021897859	-0.002016307021316967
0.01413027155370048	0.005609340442300553	0.03961991493538188	0.03305957330119282
-0.009812857904336322	-0.05249489437224047	-0.003688317533333839	0.01807684988399587
-0.001598837025115931	-0.08007748363589393	-0.03017479988058649	0.001037910976646353
0.003198740422081085	-0.09811543703925137	-0.06450078457800008	0.005760599035079175
-0.0003159054234972269	-0.1038477115816227	-0.05811400451980093	0.03308714459464791
0.001802962407538157	-0.1001402494613581	-0.01191436168215383	0.05227860535387353
-0.003878655996777164	-0.06667994648197244	0.1173065663712409	0.006365968586978492
0.0006668086008399571	-0.01850587361084016	0.1024617759653991	-0.001365905806732765
0.02471580955310481	0.01034776478719108	0.0241169546025063	-0.05049378247320748
-0.007724890082103077	0.07801841996498121	-0.001482463659290518	-0.07670358530448994
-0.03826950282477226	0.04398782472288355	-0.06452162798383121	-0.04996458284490686
-0.03494750735132447	0.02995285087899748	-0.02383178667477278	-0.005119694659335267
-0.01286618928081351	0.01790291169044596	0.06958364935728886	0.002986983860412675
-0.01184947504683356	-0.006283522622435266	0.001894825702953782	-0.006361407445270145
0.006066105039242967	-0.03581010806315797	0.1890685895404139	0.01553334208351029
0.02056694935788444	-0.04850713544070272	0.1020258205460427	0.01821363949363414
0.02077127397528139	-0.004545217933619839	0.05041945630646434	0.01119095875995385
0.02314385629832749	-0.002923086195882708	0.07771210475349989	0.00924046185000856
0.0402119077276932	-0.01406729737328118	0.03089434588842044	0.02505616868703517
0.03279604420640079	0.04306464072554027	0.1713845532119512	0.1738614477474328
0.01330474580832093	0.08847024831296536	0.1248702019642114	0.1477336382393356
0.004338727265264954	0.1130898063610047	0.0134145117362439	0.05446605507095074
-0.01260959388556255	0.1357022100256481	-0.02106329392926184	0.01388239792854793
-0.01417550225814204	0.1386234167431085	-0.01511222557596749	-0.04415933069340256
-0.02161540102674168	0.1386769728832042	-0.06560012848631248	-0.1826268314609728
-0.05008412876340211	0.06143991028331909	-0.01023992771855755	-0.2012134283933383
-0.08186006376556078	-0.01625993113284024	0.01234370909042948	-0.1326777990426878
-0.05650783408820888	-0.04073151087958194	-0.01157956700336536	-0.06074130886000966
-0.02903685278467176	-0.04893566392716699	-0.0929138966217246	-0.01749023621733656
-0.007787163120984412	-0.02494545531691213	-0.07243099495342184	0.0172111202993602
0.006773007260635949	-0.01106605787473945	-0.08342606022174077	0.02270542311158068
-0.00383789973691341	-0.03196531207625661	-0.1341784840325625	-0.01423848037869059
-0.001882325314452228	-0.03943802367495713	-0.1222460619203761	-0.01272588159851035
0.006518373442361122	-0.0404465093486726	0.1199481633404351	0.001478512944945827
0.008396010524931165	-0.04138292973770696	0.09635597188466635	0.01630814614684895
-0.02702357589184889	-0.03722116748461907	0.0183339706968897	-0.002612175237739859
-0.0299819034730314	-0.02997864876708822	0.03657547377297739	-0.01276784830923245
-0.005226536621113044	-0.03214450604967405	-0.01342801965980822	0.04678917815213182
0.008106494412365032	-0.01632650634617137	-0.054638203220012	-0.008832092973619985
0.02219023695338706	-0.01032587694989474	-0.009783432450948721	-0.03039853788341182
0.02749785121705308	-0.01494443925777485	0.04057503332947322	0.04277140116159656
0.03936147902020452	-0.005210416900470979	0.07080175441551208	0.06161269394805723
0.02244143991873439	-0.01860900752931026	-0.1333194879485189	0.0457493925371799
-0.007874984751587821	-0.02390036432598805	-0.1256476814527747	0.02411381216577738
0.01078926020612461	-0.005984240337083046	-0.1575521063347491	-0.0007021368788276943
0.03068315777168468	0.001572272587259911	-0.1842449574918804	-0.01029394334979095
0.02514546504330224	0.02819052719635644	-0.03610690003179227	0.02654692198175198
0.02448673348382608	0.04391913680387802	0.1636839412902878	0.0530937709475689
0.02803075129261522	0.04566366330998057	-0.02682255778509153	0.0243002431691678
0.02840996925553648	0.05245064946867942	0.1880939348184643	-0.006069775904510875
0.003457277687360847	0.01963859370449703	0.1037000942130037	-0.01347513270841315
-0.005942259355599967	0.01532819466760684	-0.08491246317674095	-0.01191933655770544
-0.01488640818194531	-0.009847161254977312	-0.1256110505008262	-0.007517365983666022
-0.02027089114770205	-0.055917048971904	-0.1595386543037675	0.01266596104592021
-0.0197421211525013	-0.08026618962657897	0.01360583373783818	0.02120007981567255
-0.02060120388880941	-0.09589895868374045	0.08458914621739586	0.01387003094390119
-0.01271918495566539	-0.07480849054693163	0.09532821228852194	0.003087334717723656
-0.009896078091500482	-0.03615609316288039	0.2038827179853603	0.01867308865925927
-0.02232925896102545	-0.0202031342075235	0.08646085119617822	0.01344899868189776
-0.0286205380628467	0.00408252044412803	0.0168922856392289	0.007876516037856586
-0.01300678768961765	0.01084380235521832	0.1009778566975554	0.006028053224447614
0.001449786970869971	0.008085540717466975	0.02898646109178591	-0.0007376268099051731
-0.0005099956984992778	0.007590376645704999	0.03090567071790903	0.002854614020259709
0.01138132831276897	0.004044723760192516	0.006486691485773148	-0.007274576539530362
0.01780385721972901	0.01817931021655281	0.02473146197104618	0.01621607963200416
0.0112180678289072	0.04213004263716217	0.02229647792899046	0.0061805208598035
0.01058812396564363	0.06065786544740213	0.02172842545475326	0.01506226096070292
0.00965222360742944	0.07856797996606604	0.09240796215076325	0.03838599442965881
0.01970875118830975	0.04700571218674569	-0.01124624367700518	0.02942289615261184
0.01984791690761485	0.03234345285463439	-0.07497262402490731	0.02651681879770471
0.02162813004032439	-0.02101165297024849	-0.1022320029589342	0.02805285831282491
0.002494852438876642	-0.0946589277249623	-0.1782465257843497	-0.02267208279081264
-0.02631762525595883	-0.09835614663226323	-0.1839025572052599	-0.06038998177830761
-0.02469384639304051	-0.1031479309411958	-0.1832855267828411	-0.07417616227549223
-0.009937151579400444	-0.07580634118977156	-0.07868527841110497	-0.1147763196427046
0.004195986219650888	-0.07402797352495021	0.0741342948299358	-0.1038810255630146
-0.001106922825202363	-0.04737310879308573	0.2659333756945617	-0.02792599203221202
-0.005900347160489362	-0.02108918285470302	0.1695957163917421	0.08414593848418978
-0.001896743174602515	-0.01299050165351045	0.04848486780058565	0.03575746522236831
0.001299755888855324	0.06764564623048196	-0.04384617617716975	-0.02447776541319512
0.00907122661183862	0.0918455072740828	-0.0778414554807996	-0.02486390392010922
0.01800226446624493	0.1173565354954545	-0.1070701978740034	-0.007172381741910686
0.03554186760884372	0.1372660738577496	-0.01753735357165004	0.05107901147472713
0.02952134911123194	0.1068437994017409	0.01271947490461376	0.05124267029045191
0.02209305888351275	0.1218286866001517	-0.006464960970900826	0.03200681863351867
0.01544821749301207	0.09089049407690267	0.003337976038300729	0.003917043222823985
-0.009230731383690044	0.01564655656586411	-0.07402102130397946	-0.03460210813569311
-0.08337652638816057	-0.01894153221016161	-0.01566483381429601	-0.0003824333880004544
-0.07541541182715952	-0.02711770273457311	0.06676059711783854	0.04537324984735895
-0.02200918918531984	-0.02121363716853752	-0.008619952346713443	0.0529096769809733
0.01087411800950881	-0.002864777082866055	0.1029587549052325	0.04336377947562445
0.02234416938830896	0.002590342312539837	-0.01247235802710766	-0.01913483348607718
0.03144600168243295	0.003624124178307471	-0.06343106476482442	-0.03878186891633564
0.02598842623215334	-0.01046084090233099	-0.0935968423243113	-0.05472006790711682
0.009547642511639686	-0.008187289460517121	0.0361989245718142	-0.05324790195645046
0.00131807634231588	-0.01613494595385101	0.1300642018211373	-0.03873025191688285
0.01603421839269106	-0.003463692140092346	0.1397830151819259	0.07615028351090587
0.01177010549149153	-0.01592553203357403	0.05674066281605284	0.02739180981706371
0.01133309177890248	-0.02603607052176024	0.01236831682775039	0.02176719896962597
-0.0008678029807752238	-0.02696458446308702	-0.02654061477235605	0.02524427874818908
-0.03654007522688487	-0.03045851666886666	-0.09241902295265608	-0.04985254847309836
-0.03210004098473591	-0.003427476195026768	-0.07604338008565012	-0.08363995482722487
0.006649423197498531	0.02000511259371532	-0.04355995543581533	-0.08959890864234973
0.005681363131640226	0.03707998094130868	-0.03606986198116804	-0.08743267140353707
0.01169666879733345	0.02996802859572707	-0.02952311406298809	-0.03499884320073015
-0.003391468213277044	-0.0005226915550043416	0.001460581824978312	0.02095832205176126
-0.01441756382051961	-0.01475665493420441	0.02452064695101091	0.05030689152336887
-0.02675224578327953	-0.01945441033795117	0.01321200545489279	0.004037727711591692
-0.01775533834329963	-0.02439528800311982	-0.0724003795985122	-0.05792191073929473
-0.008523194722722808	-0.02678727731220072	-0.08055047796364313	-0.01399365414136806
-0.02147855222107165	-0.03164391456832198	-0.04573088321788206	0.01590673696503187
-0.02100520549532988	-0.04744282963669769	-0.07730529013096502	-0.01580309476432221
-0.02524015456795713	-0.05161340136824102	-0.1245741416910162	-0.008690416103519661
-0.02312334529715654	-0.03836679950251165	0.03156014087321159	0.03643024625400773
0.001075288820915479	-0.03242018545570863	0.1722832647312077	0.04728222707974423
0.02274109112651362	-0.02878836979183747	0.120957585588577	-0.02521351433636181
0.02313709789870002	-0.01289248926338894	-0.04759989552854732	-0.02573315080856493
0.01211823569020908	0.009914962105306176	-0.002941011511206717	0.007220251356329716
0.02052202015627292	0.03319677551431886	0.01079199674649679	0.007517015439355104
0.02042033245602028	0.0451228338594872	0.03860834494979831	0.01718402327651224
0.02919729566390919	0.03874474576975103	-0.0543498393696785	0.01221563068767874
0.02451617728187969	0.05168749785951034	-0.04150908574489225	0.001989251602157095
0.0221327785015542	0.04849773264063375	-0.1271065040761703	-0.007403863693073647
0.008870241042455797	0.0191657259548515	-0.1827022905951294	-0.004478296209053366
-0.004090798658120748	-0.005941270414110103	-0.1352056932690663	0.0479585456908261
-0.01910801573904238	-0.04192868293736987	0.1810972798039249	0.001157972081287551
-0.002885565418454322	-0.0673182461221362	0.4822061836034791	-0.003782236226635379
0.01710107971033397	-0.04724827853514113	0.202350619605458	0.03789962938177393
0.01947824400190986	-0.03168828812175525	0.1002102602374687	0.08243566562119167
-0.01180432345355282	0.00926563108315488	0.05239538810454836	0.07085483171581188
-0.02074307127258836	0.02711766124159063	-0.003274219266865467	0.02082907651945913
-0.01998646797653307	0.02339751065329818	-0.05227401198663099	-0.02736266837428964
-0.03529044852384734	-0.01472080826427926	-0.04547600025992037	-0.04926353964188188
-0.04512133587287497	-0.02357370456736421	0.007520928660028551	-0.02401877185875441
-0.03411704148339335	0.02099070281405978	-0.02271239180973579	0.04427734737504106
-0.02083964473558	0.02716293767569561	-0.03989227227148104	0.06490384311674396
-0.001469975077546606	0.04647450079119811	-0.1204440891759913	0.04755998735596612
0.006793030772517426	0.02871659901884834	-0.1457457132621369	-0.002230647958809283
-0.004664999955418825	-0.0009688123449704018	-0.09867117044868963	-0.08409961945707078
-0.007787958795491277	-0.0101255545920101	-0.06778272184087918	-0.09993048311723784
0.01544290843003849	-0.01285343968077912	0.09711868691354958	-0.04832458758540196
0.01993623605445516	0.0168223340366098	0.287502829329825	0.007510379885379715
0.0113239003870092	0.01192692564071068	0.152995629170095	0.05790247696121785
0.0145904711649865	0.01114979640590182	-0.005465814178188486	0.0964268525207992
0.0199812786338689	-0.01838932021146866	0.002259361962171576	0.07433203975195574
0.01302326619387627	-0.04702192624232874	-0.02297221363697314	0.02752946718780062
0.01960513982911975	-0.03190105983978574	-0.05943502282200416	-0.01150777192064988
0.02159861244247087	-0.03291461362037563	-0.02902037944287304	-0.01982460598364155
0.009919635739583153	-0.06152871018991698	-0.002089054014117247	-0.01329896814997717
0.005780785441432278	-0.07525013388706063	-0.01840899824518297	0.01341946570758538
0.005830667868029126	-0.06805213720781311	-0.05227390562148906	0.0218201717958307
0.007839831338559169	-0.0382418184931194	-0.04754434191059515	-0.003521121547299938
0.007586632580645371	-0.02208017255911336	-0.02629413482821545	-0.02679141282599937
0.01667456596778834	0.02759078343228669	0.0009841531911834345	-0.04484529534473429
-0.01031788970700566	0.07474407468616713	0.007502818464535132	-0.03086058035238277
-0.01144111527298605	0.1010739582118099	-0.005972243207448314	-0.00743766418932501
-0.0005925777430639688	0.1018825731973992	-0.004680424631626155	0.009842108083610858
-0.002395861407370471	0.07881301419860937	-0.03215512173819018	0.009078716170359939
-0.01684501958559775	0.02330122733269879	-0.07978220919475588	0.02259620339619556
-0.01919310021962613	0.02320310245434462	0.0022910017001137	0.01915350820018014
-0.002512456477944654	-0.002296957438048238	0.09120497249616452	0.01051259713300876
0.005021787435933318	-0.01545547766133388	0.05559092711617993	0.005140968638148841
0.002785940252094135	-0.02348645391769303	-0.04741603756342483	0.002776018176814381
0.02109113864473405	-0.04019589270074281	-0.05390799833802709	-0.02082104647910767
0.01252133381829377	-0.01367384830285382	-0.03014009990696667	-0.01967132753862664
0.005209565909966094	-0.002765102395663968	0.00939067628941199	-0.02761613976138709
-0.004102106109589775	-0.01562378548958475	-0.1045238193741201	-0.02354385524270262
0.001661985194635645	-0.01662303140305899	-0.215456609238082	-0.01927691896371674
0.0205031192107565	0.004024216638707058	-0.128348305099182	-0.02352591226797414
0.03461793101214795	0.01170690793045838	-0.0752908316329314	-0.0320346707648933
0.04024257840304966	0.003759570597589484	0.07640805586253506	-0.05372346961834928
0.02306443417558496	0.02526722123698804	0.3685146612190036	-0.009641826807959008
0.02392507807326921	0.03385169510646681	0.1103632530359924	0.04032924583202757
0.01397550550789745	0.01587604688191518	-0.02276484471403202	0.005743929170657404
0.0134167892045123	0.009449745145169211	-0.0433597470574027	-0.01901619301501192
-0.006941779408651289	-0.01946379855939837	-0.05540974756521761	0.009272307720603149
-0.05258036864421782	-0.02519577866580407	0.001005591363622001	0.04112032739431383
-0.04255271277377114	-0.04077830475163591	0.1195133343629832	0.01887714847447363
-0.01577814618768335	-0.01116966030225726	0.08783244336470609	0.02018442625336669
-0.007016334894595231	0.02702625560134499	0.0445190852006644	0.01123621873608595
-0.02975951743634012	0.0418551426530592	-0.04795697112344226	-0.01270289058138977
-0.006243981688038105	0.07824620612544712	0.1227363469921742	0.01541957810684546
-2.521125580585222e-06	0.09870375679461771	0.1561820427194499	0.03805900128508997
0.00459397428952439	0.09219455344178888	0.1760245200436382	0.05038066037561094
-0.004684851839466419	0.05753309527734767	0.063239682666936	0.05350686612406855
-0.03609948265939876	-0.03459926704730412	-0.06151483349255407	0.0291180452106529
-0.02405856117742511	-0.05644579674746456	-0.0564147983357838	0.008676337790365647
-0.01880856419736845	-0.04175148206164271	-0.07838895001243062	-0.02607417234264692
-0.02785847935685697	-0.03102043444278839	-0.1006404471759222	-0.01751064806697144
-0.05597461131970977	-0.03767697526823145	-0.1209102028017534	0.007537100877573053
-0.06237218842005784	-0.05862589159040315	-0.1880707455399624	-0.01533162334520887
-0.01141630048553494	-0.05387036933933718	-0.1997199102302328	-0.04363008017231582
0.007211493280977607	-0.04203167301117502	-0.09219040452381871	-0.05389343827765522
0.01598931760384018	-0.01863072688405255	-0.03494788746091991	-0.0236117100622288
0.02889347414691448	-0.009385761523018645	-0.105127733583713	-0.07222165763147409
0.003023313359001726	-0.02840150469442944	-0.03524052091159792	-0.05021800987352092
0.003932515684075417	-0.0225449122996432	0.2398750368871578	-0.008568960582428521
-0.01279046237171565	0.02939834223352243	0.3168916372417347	0.01968759001536348
-0.002532929511690778	0.04117585266798287	0.1033924170435655	-0.002539779538834608
0.01447644702891179	0.02026747982133306	-0.02386249969369464	-0.04444899043483028
0.01073328566187638	0.008349175052619132	-0.01070343948614677	-0.07506191861650799
0.02202875577431994	-0.008886635649957831	-0.02645588988085276	-0.06763810639492368
0.03691911280037744	-0.03436086165564161	-0.080318542721351	-0.09832354261076026
0.0229244142188001	-0.0333146579062306	-0.09058702022261379	-0.09857105941004871
0.01821947668697867	0.005795728883734389	-0.08190642265209999	-0.07698096143574962
0.01288217582371739	0.004394835297347091	-0.08298184754445154	0.00173914767314896
-0.004999209960821985	-0.0231674945240035	-0.1328094540553933	0.1713027259963545
0.0007929376806220683	-0.01278572402014847	-0.06074309592263366	0.1781729103957732
0.01574224226369012	-0.01908651819778633	0.1281103635675739	0.2034994127905606
-0.002807676376518126	-0.01007080484436095	0.09557027299500453	0.2354944374539443
-0.003247495817814347	-0.008882895512531014	0.02489390842821185	0.06535502632972452
-0.002059021508785417	-0.008874066223881946	0.008416270629635601	-0.07093566157263836
-0.009802162342132383	-0.02876752569763131	0.03593188636438276	-0.132758562168987
-0.01095267440150384	-0.03742065708139137	0.02706036280695245	-0.1032237251277594
-0.01451160977563886	-0.01449981135483927	0.01888954941452017	-0.05109139074904973
-0.02340506389184155	0.004294904560404555	0.1621009569429473	0.01130259533752041
-0.008696982694628845	0.008582169048731178	0.02087105570001976	0.02704346777811267
-0.01252382870758601	-0.005353393829511447	-0.09880698408730125	0.01023416105289856
0.009919321816256274	0.001529135873450941	0.008365210755795167	0.09875706512036701
0.01656068856060003	0.02257917053904935	0.003151988625658133	0.06056105666408252
0.02023596802948959	0.0228986227696212	-0.03781304354755233	-0.0409700141998457
0.02126989244973693	0.02658997989134053	-0.04814702129245366	-0.1057166722777995
-0.005380299728311974	0.01667191134977331	-0.07014853394667378	-0.1072778959177387
0.003269427877879727	0.0362271166739184	0.05700907821571925	-0.06703180100960116
0.004934408550175248	0.03148400451486448	0.03516078682072146	-0.08331216272846835
-0.008166039062627244	-0.005206229325308402	-0.07060418448937587	-0.03880267937392511
0.005678998432514203	-0.0004035060120088534	-0.01161813799466296	0.006830839277121566
0.005994405340510156	-0.0009394389473779366	-0.00456486021862189	0.01705371680190548
0.006625739508443905	-0.02890823728187068	0.00547343182762525	0.04902315395690483
0.009636095038788785	-0.0362885335471913	0.1666744097673866	0.06146867852630973
0.0003511645430784457	-0.01944145027544693	0.04182356547663751	0.05785867594905556
-0.005589255954213089	0.01494490937197457	-0.03455076238697134	0.0355679003523773
0.01171435902497971	0.05052589958599041	-0.06152259212424391	0.004126410418822397
0.02464464530370916	0.08458821316377714	-0.07355844758846589	-0.01365181552943273
0.0154976365769578	0.08451018095854371	-0.08604091277484315	-0.02485502550421502
0.02338423321535056	0.08758234081360308	0.01116947093169488	-0.02306478968665223
0.0297538635682155	0.03179992053290729	0.1291559080477793	-0.008338424621452938
0.01396696649360347	-0.02222153196279107	0.1099802007200388	0.0120003213713544
-0.02296513069970335	-0.04743490792191472	-0.06289179922034926	0.08551944414383339
-0.009153839045420945	-0.02826131912975478	-0.04826580749201938	0.03374866775072006
0.01993023874230949	-0.02817617827996969	0.04205114823118841	-0.001524979900854604
0.001034364332601495	-0.04813288047417386	-0.01731285054191062	0.002424470747137693
0.0104217380902325	-0.0381098678525394	0.09674170076871375	0.06162943754377479
-0.00198420996366254	-0.008651864574935077	0.1194258326994678	0.03315018311762859
-0.01675854412424883	0.01306013264942709	0.08072718345435925	0.03756692228993397
-0.003194528404448794	0.02257242272703163	0.2004169841091316	0.03677442473143064
-0.003711529410647877	0.0195164145335643	0.02295930032653047	-0.04100117703577053
-0.00615204721950552	0.0175180066361784	-0.04266556613431412	-0.06655405294746734
0.0001575116864268746	0.03656701056521078	-0.00783873352768176	-0.009953046816507796
0.01231668859494522	0.06420892364316336	-0.05275756468926462	0.05678428773356414
0.005957585476714376	0.02717272424458618	-0.08064818629863589	0.04544509500144249
0.01479473499797046	-0.006682355026794644	-0.03804862696426111	0.02460885837783525
-0.001201309788642479	-0.005185761424301597	0.02779049758260816	0.02462019865457856
0.003730258672163099	-0.003952613454131748	-0.01198201417718623	0.02814084393072465
0.02104402353342533	-0.007773834903487206	-0.00344690056486736	0.03089322605510319
-0.01051640216554611	-0.02422653657016879	-0.02310989646801286	0.008340573127220509
-0.02841401014452648	-0.03720833201482728	-0.04403214640186282	-0.03687057574019045
-0.05768975500897469	-0.06594739938371523	-0.1004411892811949	-0.0705984151536518
-0.0488861287518216	-0.07195667053168121	-0.1142419134999783	-0.05145982256415936
-0.06196374371997119	-0.06705316862991904	-0.05405525569543355	-0.03234986693391007
-0.057489590052763	-0.04267637898148591	-0.00582025182632556	-0.04576671546306316
-0.03458957299704481	-0.01482206081686989	-0.04144781564698666	-0.05538627115825524
-0.03338277549372521	0.001766043708287281	-0.0749993664745999	-0.0608778313629252
-0.01158215386003156	0.03017511763419383	-0.04532748397935212	-0.02842145443842375
0.001007262743884188	0.01534962197115033	0.01208038907787005	0.0398185369226259
0.0003984033263841697	-0.01874254964086595	-0.01085701984594391	0.05119561444030651
0.008956416744395889	0.001374475842234209	-0.06557005361078463	-0.0005540923094969261
0.02870767115250477	0.04216360633962648	-0.06946871169760883	-0.00472140713347784
0.05460303957163083	0.07047543887907835	-0.0321294453044394	-0.002879111169021871
0.04544583554996891	0.05615533195043344	-0.05366831133994611	-0.008289704092233884
0.03006751369678798	0.03982429910058711	-0.0735437567449513	-0.008123119881588292
0.02685007377737113	0.02227071459292811	-0.04189480909621635	-0.04780592127430584
0.003609123466236073	-0.0471712646043858	0.04858157318136711	-0.03326798012667335
-0.001918123580440761	-0.06767492433149432	0.07944388697728483	-0.003785120076790513
0.007847694616830634	-0.03514180525339373	0.04355642329871752	-0.00246657445473256
0.01532608657913994	-0.01758111726083531	-0.03751825864223736	-0.004074929181967828
-0.00385266121690933	-0.02128871553550885	0.1058334656456893	0.08929674661092911
-0.03547421847554708	-0.03043251102462708	0.03385977940008288	0.11405736135767
-0.02808144676097916	-0.03835531326246371	-0.1127534954037375	0.1263061821777135
0.001103815461206978	0.003391173213199089	-0.09525363305754454	0.08049839754477461
-0.007676755526198942	0.02306503620354938	0.03725181295305689	0.03312997165369568
-0.02731074424504135	0.03876290014678757	-0.01272067310823038	-0.05102823704838529
-0.02234766398997214	0.03051466798236263	-0.008607584575715598	-0.108703129824908
0.0064763152566037	0.03821593320119467	0.02057832373046334	-0.1303997641961674
0.008759302865425287	0.04297889208904571	0.2255827019316696	-0.1226678542510239
0.008205117693343105	0.0278709711829255	0.2402122680038611	-0.07904790291439556
0.01939583583062975	0.03038947848274157	0.06143328513696843	-0.09544915434825443
0.01118237085560536	0.01563436977356029	-0.01771529123487989	0.01916613767517972
-0.01048806725015861	-0.0493557585764365	0.02692493147237874	-0.008681895384562982
-0.006620220200669371	-0.05554847080849019	-0.07603183795638457	-0.0236508056809282
-0.008726896984016998	-0.04399400821371752	-0.1759380195299876	-0.01014378532726793
0.002346664680014583	-0.04618364988847936	-0.1555765615703074	-0.002445116087116549
0.03134148728425466	-0.009365089785493623	-0.04545020425583179	0.02033869652280971
0.03367782575245001	0.03793051333562662	0.2481587850193678	0.01123782613888312
0.002223927097108118	0.06964569274126491	0.1756917234045719	0.01893582140679332
0.02192666769339088	0.05552692161548375	0.3793061904272218	0.05763083632077177
0.03208545553419608	0.03328182411643048	0.232474387307374	0.04740779905515294
0.02476602191610125	0.01051994846990517	0.02596902668186974	0.01817031687216897
0.006266975224064297	-0.005868960237984456	-0.06033585851018496	0.02044707040539876
0.007579150121739608	-0.004689822693110311	-0.145238396149921	0.04331315892955422
0.04012938017565491	0.02435417832839392	-0.1651162813720067	0.03500000538863614
0.01798905014033078	-0.02181918157084036	-0.1148067062376963	0.04738038175750197
-0.0258570552260349	-0.0798906523418155	-0.07897524427787761	0.05940369378125235
-0.02294909827546858	-0.05950276335580745	0.08748502672401162	0.04035416825530724
-0.007107421893637206	-0.04640361118769161	0.06572684797819824	0.03601077434125467
0.001780258136385415	-0.03328973368895439	-0.007979037956528424	0.0544093841001902
0.006644622364530181	-0.009337294739783114	0.1572175203026189	0.05814338142491064
-0.01054339934447559	-0.01680533287248337	0.05727023042739434	0.02404093451003673
-0.03508512475821705	-0.03664730093654395	-0.01014280384674215	-0.02134108484491165
-0.02651533958682698	-0.009493144629792337	-0.07699108622924228	-0.04877865330740708
-0.009658633218055133	0.03893334546451617	-0.1155283846992378	-0.07516188966044531
-0.03486722660284185	0.01939844647138196	-0.0958609644180521	-0.07332799204487674
-0.03633693906418942	0.01281478433250782	-0.09775344251754572	-0.09272705769707151
-0.006374561750169846	0.03273089750405886	-0.101552026841798	-0.06008068174935603
-0.007495161053484951	-0.0337991573522181	0.01349255066483905	-0.01380605193481515
-0.01356678764025468	-0.07005548211353994	0.009002030897442464	0.0137311753727325
-0.01865785861749693	-0.07758789010860084	-0.04423148493964042	-0.0378991498971665
-0.01224793599248896	-0.04286454997125621	-0.0111276726033587	-0.04775114168190092
-0.002839347758138594	-0.01210276642895923	-0.02514993847532301	0.000561810702738245
0.02716951206386375	0.06635059341164745	-0.09754065233587737	0.02902489686237807
0.03594632299402111	0.1029647975069241	-0.112136100051315	0.003892808916982346
0.03651596990849347	0.1472459044804518	-0.08908914023217457	-0.0305301965112501
0.0277058667507494	0.09837985726550977	-0.002091988306435478	-0.003322078705597415
0.02812860162028173	0.06083060959082066	0.05648287550588481	-0.006694271601211995
0.01104598717215292	0.02919137898388026	-0.02605932355697063	-0.009443108272118776
-0.005447084578541234	-0.01260818508858183	-0.03237296050339708	-0.007654442197310951
-0.008936951033103935	-0.0100688393318202	-0.03224280196876603	0.003380862509023083
0.006741632279561737	0.01587455763938148	0.1715641902386231	0.004961986725727194
-0.01315749486232574	0.01567978439008159	0.2444462928753892	0.04157785463172227
-0.0002574927862493057	0.0113014057649221	0.01204770818918169	0.05165601746257528
0.01411767844974192	0.02719747348402305	-0.02748540850400056	0.06889621583661185
0.0005690126490501781	-0.01712812848468631	0.007113716547365645	0.009040163370168389
-0.005538803392318969	-0.02381233065038194	0.04507590812547783	0.007398852045935941
-0.02642392551661787	-0.1334756059135588	-0.1018442677771305	0.00893166703450677
-0.02568049457042223	-0.1039844350811405	-0.1866051010254707	-0.03016670762672661
0.0006347946290549844	-0.04178536703223485	-0.1445569264008372	-0.02207501654576503
0.007667954920049441	-0.00222436925699866	-0.156675882353093	-0.01275098782513702
-0.001484351319489689	0.000337780809164869	-0.05897187372938574	-0.01024680094115093
-0.01069473096594412	0.0508069066142857	0.4389417758834105	0.05298962722131182
-0.0137167727075267	0.05279947521684921	0.4955324168403847	0.07301567411433982
0.007966323040649726	0.05444280115251025	0.09366630085117049	0.06018625924288211
0.03881704484177556	0.04548448520200462	0.04872514869731091	0.004463408632892706
0.04617545113512173	0.03194992068484356	0.02871330300997562	-0.03142935281570595
0.05072169667430212	-0.01332186388697488	-0.0677129890309886	-0.02821415511556047
0.01455958572470206	-0.04356928497401717	-0.1264371330636752	-0.01770777083232726
-0.0002108318077357959	-0.03646145309516901	-0.2074244015734678	-0.01252668167425473
-0.01411297187701672	-0.02351013155702615	-0.1925030241560647	-0.001842237694851919
-0.02540087100121298	-0.02347706875691515	-0.1731867985197012	-0.02686994441484219
-0.02311673603113427	-0.03890347094348351	-0.1353172501085405	0.01267011101993818
-0.02530022718648101	-0.06458133990371312	0.2669865800155517	0.08552335653445896
-0.02851043957476645	-0.04925023614321546	0.2837053505304824	0.1715746614781778
-0.03097666260766601	-0.02501215135596945	0.008162544050068147	0.153737962704579
-0.03078758505729859	0.02083048232010743	-0.01659232500991473	0.05603454912336035
-0.01591499798950718	0.04803315667553659	-0.01058294556822789	-0.06560507077844455
0.01175898885730185	0.03696671907372563	-0.06700039471748603	-0.1332933372132314
0.01883339682154401	0.0555588539779758	0.09113527986984027	-0.01489972790582547
0.02365151159311711	0.07240369214250277	-0.001835855413854055	-0.05490285556991113
0.03478131033663705	0.0789294982934487	-0.06193734597131506	-0.07081547432524234
0.0387081498100593	0.050008208963103	-0.0953505342126923	-0.05291290874909013
0.001557084216818841	0.03381418043858963	0.0177167055292905	-0.05789443064981288
-0.01566474249686221	-0.08538154038749309	0.08956861142075902	-0.07797033078593946
-0.02536232561130269	-0.06303915722308667	-0.02815193970627011	-0.09027108011754115
-0.0240841832002047	-0.02276224141754641	-0.1290265835841984	-0.02721154967975258
-0.01500329574633578	-0.01632796809622004	-0.1138976171891408	-0.003285736535034543
-0.01704169222709909	-0.0005900277211416361	-0.005034292616331515	-0.04537134277144816
-0.0183969262160909	-0.01384473394380511	-0.04535963274185088	0.0009850934139201081
-0.006925367663650548	-0.02551713586071416	-0.02635149182317873	0.02566114268351469
-0.01027060046791508	-0.006881177852548498	0.01497292557527227	-0.01408799630684134
-0.01618093488549122	-0.00435331694759108	0.05055852051079784	-0.0002486163767717918
-0.01071355825052648	0.001298060307855414	0.08432044542488241	0.06980810745432277
0.01265707762783517	-0.02484626123894354	0.0007964935362360084	0.07848252146273475
0.0131691788838842	-0.0393973812530897	-0.05648138715384552	0.05274395593250712
0.02152863734158765	0.002081034588632999	-0.03499799627961067	0.05616992590743392
0.01650076620784139	-1.312869670854898e-05	0.02689823530128519	-0.01731188423363838
-0.006593938536273889	-0.01665444846299343	0.03560663644613632	-0.1011278367164113
-0.04433608418318352	-0.06126995222941126	-0.01014218020794065	-0.1009238713046603
-0.04443228998758782	-0.06728821387025098	-0.01771397677978262	-0.06234095108038482
-0.00759675098927959	-0.05550837542352599	-0.07317907925864502	-0.07384822926883859
-0.003632618289014868	-0.01979879159499829	-0.1038549788897775	-0.05358228947545568
0.007809117574928349	0.01305238769453598	-0.120219677744273	-0.04170462049496996
0.008555595525672643	0.04205809198990569	-0.07910873977487003	0.1014835372360693
0.01097429758544827	0.07907662049594251	0.1156373992273554	0.1995576696596788
0.0426169673401083	0.1284127769536936	0.1102291898716947	0.1511839869585996
0.0317547224027119	0.0730250134636047	-0.05406715779125571	0.1470955216901758
0.005408910909071872	0.02074244867651099	-0.1262148550184705	0.1042080472491449
-0.01564413996246446	-0.01662631391150216	0.01268827842760275	-0.02340541913516784
-0.009340962290664402	-0.04718234287444584	0.1673150561009935	-0.1225759983709028
-0.006007643838651745	-0.07277065829494576	0.177487178553626	-0.1350541243165922
0.007080977861204317	-0.02961132317423644	0.1141622369412687	-0.1332742801335845
0.01187239378967051	0.04918141339517054	-0.008792078865119193	-0.1170999192654024
0.01869576589573832	0.09355325149378653	-0.02534210750205856	-0.09537209545707154
0.02492151100835804	0.09079390187927626	0.1888588734974836	-0.002747573437709333
0.0159572476549929	0.1015564732857874	0.05845031986416865	0.04082022629948412
0.001390650247427246	0.1017459893159769	-0.03953088926828008	0.03759075212237265
-0.007128793598123171	0.05621947574679908	-0.02318904718502942	0.04776190680915523
0.00583946881439871	-0.01854470049239425	-0.02850027657183146	0.04323878347763992
0.006671278318521461	-0.03607720429633122	-0.03419935389525408	0.01575353264981157
0.02316861769379527	-0.04019503353713806	-0.07022821481707443	-0.008528120977825824
0.01172493636003697	-0.04990622366836182	-0.03168434282164672	0.0034826978052929
0.004978507069778278	-0.0160557329679221	0.006411443588076007	0.04069507044112268
-0.01472796003096418	-0.03258799146372519	-0.01636293930096253	0.07719636310316381
-0.01943151600577022	-0.04847738596554142	0.04972757564493262	0.06028891421159577
-0.01821900833875631	-0.04929738947502853	0.04091581872213119	0.02361696657529577
0.01164904460519671	-0.06534207800451035	0.07167731878800535	-0.002384652026016819
0.03037225135599177	-0.06000983640063481	0.09584133680844195	-0.03410387760043702
0.007208689840430397	-0.05896613717629962	-0.05212734980186857	-0.05455270003765456
0.007285641421120951	-0.0568311704991471	-0.09151331522404989	-0.0247978096452097
-0.0006690966788615621	-0.03296803226878221	-0.09357857037776476	0.04210587915721188
-0.006704080623545705	-0.01429685162671075	-0.07715770155687826	0.06860411047214497
0.003285183251613999	0.006260069407348755	-0.005073542557147351	0.03187256938106139
0.01980971582108151	0.01117600657647721	0.08474187912168465	0.01362724960357043
-0.01478368766669352	-0.002029371717257175	0.1473028723553355	0.001471996175067316
-0.006582988937725259	0.000208347646653308	0.05009387365916464	-0.02433592731783203
0.01754743901489715	0.009418662928383413	-0.02296100202478659	-0.05058725010009561
-0.01145161098668767	-0.003077621461909354	0.07569591513698647	-0.002815785828864096
-0.01391690460409796	0.007628635845942236	-0.07729468456587262	0.02731818452515825
-0.00933193104163736	0.03322025288079748	-0.1485365831673347	0.01241628217154453
-0.02393809187094716	0.02021089149875531	-0.1574247388403738	-0.002717638341129831
-0.01533568066918523	0.01812927631091765	-0.1852342627935835	-0.006942812754895732
0.0272039808768125	0.04457702404647025	-0.0908725850071125	0.008409165813987405
0.03684249210891502	0.05158391696955751	0.3957874970359972	0.02646176188927009
0.04506437837273197	0.05073469259216574	0.2064137546868728	0.01268321217993345
0.01043715228358186	0.02415202565948203	0.06585462754837518	0.03480901085031798
-0.0004122571489390159	-0.001965881579483286	0.05932061906835612	0.002688917866672108
-0.01890815767348831	-0.001449763343729002	0.02480408787335765	-0.005052095885869758
-0.02937799138631617	-0.04037420081849653	-0.003829080221016745	-0.01699087314472242
-0.02823625514580647	-0.04309400182701667	-0.06947418119640324	-0.02182791775346868
-0.02049299702812834	-0.05060084816495138	-0.1312783725877386	-0.03959963224806635
-0.003422185858660595	-0.03976468201193507	-0.1459103924594383	-0.06136170017762086
-0.009747869245348052	0.0009591998045397113	-0.009309045444569057	0.005831849002966265
-0.02682648965176778	0.01864625395920762	-0.04587480517720988	0.05643023499074631
-0.01976519300475288	-0.02538257663853097	0.05221796727841398	0.0456517097531993
-0.0186937955745128	-0.05841024716830492	0.08714330457813776	0.02055785054168904
-0.01562546121462609	-0.0350264257673704	-0.02570106097733852	-0.0414836381058172
0.00244675897700544	-0.03003956367087988	-0.07704922740622437	-0.06838443166644961
0.05082076712604119	0.004968030853402687	-0.09581321092480263	-0.03627518536056107
0.05029590612726543	0.04748809262053377	-0.03309730295520935	-0.0166276687922079
0.040630267295501	0.0776292432395982	-0.05474178792844396	-0.0004737195783905525
0.01718359052187653	0.05363514975617983	0.03506390974771308	0.02332410786873793
-0.03244763133366856	0.01620109303853872	0.05331073944890731	-0.04068023454064384
-0.01801236070501003	0.04422147130021146	0.1081895679570388	-0.09441849313770223
-0.006788564237180036	0.05103804977089109	0.0555276682161813	-0.0389049456640651
-0.0253090685783428	0.04311790950120522	0.03858918330872629	-0.01582785457572479
-0.02476127400572332	0.04373240110673222	0.0769108728914467	-0.007778714484580476
-0.03544857493739903	0.04792095776916561	0.03624636628791566	0.03903281810982073
-0.02297746547826759	0.01552650204259033	-0.06043036093059439	0.08104565470542931
-0.01013737763700448	-0.03162952456882804	-0.1064558717089169	0.04007868648483981
0.01510279838243378	-0.0009481703044888302	-0.1297920808932292	-0.008036693107395489
0.0202054305790054	-0.03087249592303101	-0.1910485890042257	0.03141342691468556
-0.03174157163962599	-0.01810389899867315	-0.2172207657854855	0.01872153969553508
-0.02831804017694394	-0.038473303977704	-0.2326810885503152	-0.05002222237773756
-0.004262505387501682	-0.02713075898706038	-0.01875666678566718	-0.06392817836244163
0.002930777022421958	-0.02256122392332983	0.5779031864436663	0.06261257138051868
0.004693969524960793	-0.04471398543753544	0.4183510981235407	0.07539532778511415
0.02071729683455759	-0.01237205468807545	0.1121457627460261	-0.01094489430037078
0.0252425827187591	0.007080854535687762	0.04963446265995475	-0.04255230227666381
0.02800769530342619	0.01017139791412425	-0.001577179875583649	-0.03113072213673765
0.02668550783076186	0.01632908109027568	-0.05382029131067618	-0.0409260346322426
0.01529642266438079	-0.01915319645078948	-0.08168383686180831	0.002853846144075173
-0.0005303060313111474	-0.02082398945576199	0.02960622126025713	0.09989619847651823
0.007441813858874896	-0.01840137119987078	0.06051328647438795	0.1385911089155136
-0.0170753200779658	-0.037562322000111	0.03421215597139432	-0.00878704029859283
-0.04647065492513117	-0.07182816173221553	0.004330200007122659	0.02947568624251068
-0.03431213329756368	-0.04762941797172742	-0.03088114954548968	0.08264318064903775
-0.02040672334213302	0.00505397103366283	-0.1206020247612501	0.02006187288607294
0.001335411725041947	0.03264603041208844	-0.08713129004569799	-0.03625443710193256
0.01674937965655757	0.05319636879600945	-0.06628755441644728	-0.06871339564169761
0.005114235719145417	0.03340048480514499	-0.05335450337668846	-0.05493509074489198
0.004906648034481213	0.03911887597390006	-0.05515404179320344	-0.02546641726799035
0.0158557417875778	0.008275152838214827	-0.02304500474616251	-0.02376983389157357
0.004524409544861094	-0.00643077448890872	0.03616727544612084	-0.01740565154250524
0.01074320820369281	0.003720958569614227	-0.06255999789724519	-0.00478366955342902
0.01662928754335644	0.01925125988445513	-0.1019175507452297	-0.006275855143701446
0.01946731276272873	0.03151377983240038	-0.05288642119523064	-0.009330286160236049
0.02689206718085102	0.0196436935187187	0.03307372020625158	0.02251549813783009
0.01397573931176452	-0.04364667534751577	0.1500800599133778	0.05907261531880734
0.006426561842398155	-0.04888730325589476	0.07103957010592375	0.05021178469807525
0.01120040141625512	-0.01386606106582009	-0.0316075322133066	-0.01374796503897989
-0.01299502013525221	-0.008869658829127396	-0.04646752649712866	-0.02552161556805997
-0.01502429602985898	0.009874973646301849	-0.00652282275351778	-0.05842816370289759
-0.02897962226868748	0.01462764293473965	0.3009968063535045	-0.03632388374907532
0.0005760102793827705	0.0366497572574122	0.07574118318923101	-0.05232145099682958
0.01693029829219876	0.02599796161608055	-0.07625204746727789	-0.05315286690279497
0.002604768105353429	-0.02086492397159248	-0.08299635726815424	-0.02545739010147427
0.02557955889537436	-0.001757666363508265	-0.120770804622128	-0.0220082692455165
0.006634180943118511	0.03320332242095677	-0.06488494951280772	-0.03114842984661966
0.004546260105955224	0.04562277742418261	-0.05930255360563831	-0.05794762629024117
0.00780633677473472	0.0641781902070556	-0.193004404631011	-0.0636299044414709
0.02789221601332741	0.04368397511818031	-0.2316956450804549	-0.04466514439319976
-0.01884504479613136	0.03806181674515193	-0.1126427409018431	0.02489904904261058
-0.0395564890214101	0.05848650968051625	0.1792206069443867	0.1057522998395164
-0.02639646706813014	0.02288882054342365	0.03573317189774342	0.1008668195328834
-0.01675010494324322	-0.004794201571024568	-0.03638483796182113	0.07238626084321263
-0.004749499956184254	-0.001581995431753312	0.07246311862362098	0.0327277805565096
-0.018963209159548	-0.03726377413786228	0.1069443881696862	-0.03089265116329399
-0.01131499721386896	-0.06117745236667201	0.02818415243536707	-0.09500286506170703
-0.002918179418422779	-0.05696666157947426	-0.03569739723440685	-0.1009077728960925
0.005254206502927069	-0.09832722380635238	-0.05993223449347679	-0.04478668113004129
0.02873279896914697	-0.07043049366401187	-0.007928198648003579	-0.01240483564248539
0.01272740635164573	-0.04321330238816355	-0.03577998360120137	-0.01990450047676714
0.00793417743851485	-0.0400853423702217	-0.1383698594470884	0.01594517210209139
0.015146362024272	-0.03070559099409461	-0.01398566822682797	0.02785290389394045
0.02056685898881217	-0.01105693301679073	0.1641098524946347	0.06835304774654986
0.01610743054900638	-0.02447884789458812	0.005105302132329109	0.0763351060619528
-0.008275674427280447	-0.04750727945747691	-0.1304641013952818	0.04727047828362174
0.01508703394409773	-0.01447957611871843	-0.131211927582912	0.03484396424593096
0.02542502305987401	-0.0002032038790207216	-0.08941946616065576	-0.00215365321769235
0.01482820124101058	-0.009217501495665368	0.06655282865873692	0.001673821978832431
0.001130698640555019	-0.0207360799440891	0.1742910083757664	-0.01231001614507114
-0.002153122777736947	0.01330417712294438	0.2013909173161625	0.01323709257917392
-0.00394571309982321	0.05372370627649882	0.07826846169951547	0.03358477408991054
-0.03477998066054421	0.05241959037941191	0.05250055816369351	0.05613318018033964
-0.03819985864252844	0.03684010835867201	0.05236336732959768	0.05240901014979629
-0.06083771552806547	0.02842872709735985	0.09236361116059374	0.05633717657221347
-0.05174350011365208	0.03255762122729898	0.02919146368369228	0.04177049097579822
-0.01624616977049725	0.01695109405673696	-0.005038672773862586	0.02979840535845718
0.00496432588777345	-0.001611161666718383	-0.03837290733144438	0.0189655732291493
0.009853162236721951	-0.0009875303522208308	-0.03388811734270804	0.02100623684501519
-0.003299903537053469	-0.01551093796012943	-0.02435386337741726	0.01852273779118988
0.009214169612401161	0.001809864385238793	-0.0004764938419984672	0.0143335535005501
0.02186384943918533	0.01383599627400184	-0.004738215092962692	-0.009117161770824543
0.002390107824187553	-0.03126369905489929	0.0704129258169164	-0.05466039606229982
0.005100847041427447	-0.06447229611710087	0.03060418080390257	-0.08468357254087899
0.003629160842970958	-0.0628315566310447	-0.002309745961842124	-0.07101471719751604
-0.003804480078479251	-0.01626214679071656	-0.05707563173140069	-0.04647556224222685
-0.031587753716524	0.05675328732563144	-0.09585189953520754	-0.06354085534789786
-0.03268963817113853	0.09257095908472335	-0.02341916889929582	-0.05904282504318682
0.002534957238301779	0.09388256958053244	0.06803139971849577	0.005419544701161291
0.01352459662141164	0.07835672431984872	-0.03022195404866989	0.02112831829842704
0.02839156598855454	0.01758950431193996	-0.07571213136087541	-0.02128523504100012
0.04118729353937093	-0.01322120016283022	-0.002382668265937664	-0.04674508338306085
0.05498605724877773	-0.01480881357171799	0.06406480970995547	-0.01804236795706333
0.05543738083285307	-0.007409225643812557	0.1594444288679303	0.002313956349015172
0.05144129060086727	0.02122544259451366	0.3256245345345034	0.05138850420874022
0.01528847471917545	0.03513046194374912	0.3317232425704357	0.04799938087059723
-0.01630123881868519	0.0455626682519237	0.2018104328127994	0.001782353439900994
-0.01399692394568227	0.01105548553215048	-0.07894587064461066	-0.01394116873330315
0.004116609922297871	-0.0444332913253225	-0.058224067003789	0.01194403847191636
0.0007987429244746065	-0.04967551760263446	0.005455934155771931	0.07377010058016718
0.004144279164177228	-0.02428033480244532	-0.004859146711443356	0.0527750512905335
0.003584709268074939	-0.08089406709842369	-0.04711028283713303	-0.00216807051051179
-0.01209009740373043	-0.1239570820959152	-0.09085443576986012	-0.004740742265823634
-0.01514884728711076	-0.0767139801114622	-0.113438759888892	0.04252665084348436
-0.007645837711758202	-0.005430447244327805	-0.09056442786645405	0.07848158592282671
-0.01537316071756391	0.02848841600578819	-0.09683604781215564	0.04191501326357565
-0.04362969154935611	0.0878335625827745	-0.08843011159500214	-0.0110816313791466
-0.04261619796118803	0.08594496424955268	0.1025347068525193	-0.05586283107318385
-0.03241052322978242	0.04998658332898687	0.209227783023855	-0.09201093514742242
-0.01970230932336412	0.05959191123154162	0.05648383872506681	-0.1265845286200014
-0.01335860949312325	0.04879474923285993	0.0473918018478467	-0.05142374014552163
-0.01673017207589164	0.01481902491705767	-0.02542804431995286	0.04175677510922388
-0.002430402610371489	-0.009138353897390853	-0.1146093500544856	0.0467191680347844
0.01615936561091624	0.01540484396873141	-0.1346844901555206	0.008789332932105895
0.01354119420701607	-0.04366671155924672	-0.1118072164643411	0.009448422780014492
-0.01540440677486205	-0.09254723069322937	-0.05291357915860193	-0.038348389208831
-0.02495058961319872	-0.08820099792076069	-0.0261507526263307	-0.04660347141152165
-0.006979953117365679	-0.05161161746664366	-0.1386761242998165	0.002891642877376168
0.004851805112647542	-0.02888373638997641	0.01825146035107893	0.03066781819964918
0.01422917406432342	0.01943012118981371	-0.0155889012970951	0.01940293864042409
-0.002813043828422269	0.03018292597230633	-0.0116661822998077	-0.004744316255239874
-0.01389857180276329	0.03752062150335769	-0.01502311637007455	-0.009700356884827651
-0.009503792745578089	0.03572506595125536	-0.050446534991359	-0.03953048064156702
0.01774085510744576	0.05186656309422114	-0.008124180086925298	-0.01767474320169392
0.04161961061283827	0.03861473625194196	0.03030918367211705	0.0638720802902296
0.03077241500334058	0.03756325477609555	0.02595301647702164	0.06237821733860076
0.03348281758666764	0.03107531420459356	0.0358043456541623	0.03731532410093567
0.01673364966826571	0.005855398399798678	-0.04701935547025164	0.007145678992930303
0.01655872582230902	-0.005001625316122114	-0.08468995805599588	-0.02577651215517156
0.01396723495863624	0.008591203823284937	-0.1843308455156097	-0.03209200221335743
-0.01110819492640468	-0.04907786727969123	-0.2379287203342689	-0.08821664206752163
-0.01979566692442117	-0.06607483250049798	-0.06521984866557023	-0.1451897940627299
-0.01024651930530638	-0.06533900565821854	-0.05785651632575343	-0.08147740909134246
0.0005897548548637096	-0.03075613905489912	0.007139640432738854	0.01027358938837693
-0.01293287728847703	-0.07162749100609253	0.07272419059748465	0.006764253332229945
-0.0007953849677854053	-0.05902254957045924	0.07626296638434017	0.04148803037203271
0.01487850352101805	-0.01926084915596548	-0.006188650437659384	0.06312125031593033
0.01198070295286869	0.02831674146828723	-0.099231448666758	0.02570579460615696
0.02041807441043701	0.09243563167079881	-0.1545676865181289	0.02293870096489634
0.01049877598983074	0.06436758775066187	-0.1670112794402694	-0.01035740325347096
-0.002427614719098456	0.05329493413641787	-0.1642186568560704	-0.05282996501180626
-0.009430890214324868	0.04935461090458024	-0.03713854045567186	0.002195361574892874
-0.003653074938103285	0.06718275795650801	0.6720006961397086	0.09753079920635831
-0.007738131760792378	0.0305258845234155	0.6101559682303741	0.09715363202898242
0.006437303669039223	0.00422999011405515	0.1436129754154399	0.05792395080576256
0.003789888611157212	-0.04509188925037491	0.02403731884601742	0.02243412994132061
0.001882105311363193	-0.04657635086966672	0.1363700677964539	-0.01216413158783696
-0.01422473755424842	-0.03948844113778681	0.06035816428079836	-0.030032185984974
0.001277745710127708	-0.007073552389592373	-0.03726504064794387	-0.01444234886281114
0.004752417390367815	-0.03837937158310255	-0.08806297080080723	-0.03304672931838905
0.005922232873521089	-0.1063487388054174	-0.06275791586039524	-0.01543458373196741
-0.005458653192076751	-0.1240258214424669	-0.06655589558558714	-0.04340478403652135
-0.005318416530628875	-0.06877024502311259	-0.07300462775533052	-0.03646319654441121
-0.01361294234764084	-0.0392316955666947	-0.1198073347870544	-0.03044865084137912
-0.01359936952574618	-0.008021870883531016	-0.05002811477316896	0.001101020725104363
-0.02309506671676038	0.01488885495445045	0.0100962835466803	0.06996195789105791
-0.05123663479457086	0.05957683009980563	-0.01133902897394761	0.07224298322295017
-0.03046470638163323	0.1209631950856935	0.00427339100486569	0.02659686172474914
0.004044294416164227	0.1343919970149766	-0.02566430723367534	0.02289049804808668
0.005566834792639186	0.05114010169890189	-0.03383513163477334	-0.0006145926334350313
0.002186496356746925	-0.01175089096488424	-0.1249160613188457	-0.06849216667235804
0.0159351686293966	0.01105511661238446	-0.1176424322426744	-0.05263753448709377
0.02450103816843294	0.009777104479568364	-0.08283427658790704	0.01321839606270068
0.02619905176290859	-0.009471845853113878	0.02080158053888929	0.03341701896451055
0.008117943118188347	-0.03441034984406148	0.01295056070536475	0.02507215560025981
-0.01923309578666506	-0.03539104140522301	-0.06815182417353896	0.03587150003334954
-0.009829538246517028	-0.0269762604154178	-0.1539193670743697	0.05481095216869235
0.02129060340339424	-0.05232500204847047	-0.1688190307290102	0.04611322046413548
0.02640727252969259	-0.05877899905757378	-0.08700117751059586	0.01202536547336615
0.008173358596581368	-0.04619474100039433	-0.04702890953993179	-0.03386467645271423
0.008433377887475854	-0.0332691575982741	0.01153277948071126	-0.1076581744136656
0.02290579631598091	-0.002489484408292881	0.02791664276538624	-0.1086967318480795
0.01417673138722598	0.007533601587270551	0.2642856335728762	0.002537759386432884
-0.007686164664725126	0.01817782965216313	0.1303539591682296	0.06223801784950375
-0.00551271303591029	0.02242703002459539	-0.05429358069758585	0.03696430370686921
-0.0147200254799481	0.02369843557351719	-0.07747864603621277	0.02813935129991301
-0.049039522450564	0.01650563466623835	0.2490447340986216	0.008094098343982739
-0.0507497753195668	0.007905908391122998	0.1716061647855788	0.006569589620512083
-0.02509586856859249	0.009932290550513586	0.06519514970403782	0.02877923024056544
0.001477717887743104	-0.005739661763221895	-0.05190457466348254	-0.0008542140402040071
0.001383775803446307	0.004854958293695536	-0.0373656982944354	0.01078766055566725
0.01036742671479567	0.02031186171470969	0.3680342752178323	0.007124572784273052
0.04238055772804248	0.0834855822071678	0.03571005274393304	-0.03150602336321054
0.03471704424193789	0.09057031399877574	-0.01696415661735602	0.009690775132745692
0.03206898149937156	0.07899301734061968	0.09213305890080975	0.05560727886214765
-0.004418230914172472	0.05495683392056223	0.1718652543849474	0.05170381191264396
0.004629454604796899	0.0526901065509391	-0.05056348171659727	0.03830031680271895
0.01952313711337012	0.02390260494942717	-0.1656000427110702	-0.002960582217869459
0.008125726335499222	0.03107825671718459	-0.2373091912092278	-0.00943635563431181
-0.0008598115033251622	0.04328683985394793	-0.2172796387759566	-0.0264670735678597
0.01442350950606039	0.04164865468768758	0.04538571755301764	-0.06166441652714948
0.009336901896625765	0.01045029544339722	0.4499280024280983	-0.08837286126335887
-0.02925438065962946	-0.02738938093935172	0.08002342523728018	-0.07354305282215828
-0.01209671333108291	-0.0160568562018463	0.05765523413258675	0.03269182034854982
-0.01255544485416151	-0.0170008727359056	0.05682076489073542	0.04088513287239639
-0.01833802909316679	-0.01827564425722434	-0.08313416806618704	-0.0357260101080377
-0.02192202806121981	-0.05459797086705299	-0.1253200285753027	-0.05179381721383781
-0.017375259170761	-0.07860338863729409	-0.05204294433510502	-0.172879422577922
0.01641919446775521	-0.06687498019336729	-0.06341125233961772	-0.1285237814742694
0.008183830812582372	-0.08211394102740868	-0.235597630363458	-0.07521832351235026
0.01259079450789146	-0.1024698504646928	0.00431681109338109	-0.00802803721536865
-0.003374335670009119	-0.0974757897227006	0.09929990253466836	0.05780331164609937
-0.0008554667944918861	-0.05494341399618055	-0.2152124765023072	0.05658355071327519
-0.008146717686830156	-0.005497969442832499	-0.1851090472143227	0.10510256882601
-0.01024571678085291	-0.01848841251406133	0.3044964783337435	0.1389561185249416
0.008678424431839808	0.004411717350268835	0.421028010190578	0.1216091536007935
0.01410250629416208	0.04908587967930048	0.1686313535330717	0.0556322040762582
0.004798640224902583	0.05824391608658178	0.02120313526904415	0.03411344706397844
0.02640967506319118	0.04311850778005206	-0.01513315242323799	0.05865149831961816
0.03235011420030578	0.0005629112502096526	-0.07741030114301067	0.03024224730536698
0.004785327678295067	-0.0834520568206875	-0.07409714731149668	-0.01598488976190573
-0.009361747751681781	-0.1047752745025943	-0.07810685028822346	-0.02883017221602973
-0.01443020770847474	-0.1523665346500769	-0.05714650260776489	-0.04079553154210484
0.002853555849385879	-0.1001010579926929	-0.04918203709936948	-0.06681063892953631
0.01939657915216465	-0.005106329067402975	0.1138939585569932	-0.07719579304578665
0.01310563994605493	0.09283129985750525	-0.0898047722321178	-0.09033125416516276
-0.02608366218529394	0.1243697907858705	-0.2277375677279987	-0.08364544376199989
-0.02935071870515386	0.1511469475001003	-0.27134931523604	-0.06894434699933746
-0.03128506304171946	0.17953674673655	-0.05238175178871438	-0.004581735197542663
-0.0282566946733466	0.1582341434313962	0.1636893259706272	0.0004896054993196639
-0.01649469245468319	0.07782113990938411	0.03563728528550274	0.006854554725881896
-0.03049328557276105	0.0237970443193273	0.02102860211865541	0.05056886174919065
-0.03091705316722705	-0.008036455750665694	0.04341799316886286	0.03813012905340661
-0.0100512431480242	-0.01256455631666442	0.007223400068709278	0.01473282241948548
-0.03201196624761705	0.05729793157244621	-0.1090073979379157	-0.07008153425574276
-0.01563035154461988	0.06507921098028376	0.01580360698078408	-0.1067746410088038
0.001007450940750328	0.03662656341106076	0.05405151979656535	0.04615446897295764
0.003571450893959793	-0.00443385388160455	0.0193963261842548	0.0968778699368599
0.02355996586743783	-0.03459248130728415	0.03888850676020267	0.1152025372420563
0.01857638347598309	-0.06654112479703199	0.009662924651752358	0.06434776395597609
0.02462210555699368	-0.1062425486280842	0.05602452951537466	0.04371845360963848
0.04504308753971904	-0.1118284999800532	-0.06030773964950346	0.03716041799487228
0.06822115239015746	-0.124321942953125	-0.1696697083993449	-0.003981863513699123
0.0190355144623869	-0.08954659156574037	-0.1241287720500161	-0.0544611109994472
-0.02400350298568328	-0.01955622697628206	-0.08189008917151723	-0.02478388846082056
-0.02323055610606609	0.01189874990954433	-0.1470306101395511	-0.03369044872753296
0.008225959737305255	0.02802497234035991	-0.1368875348978119	-0.05968907770179745
0.03646073149490819	0.0004899186033094603	0.1284312527465011	-0.02805064071806323
0.03590448744959603	-0.03423898274812858	-0.04975739090758358	0.08197454287419506
0.01017584517720745	-0.02629368214580289	0.1700408843302834	0.07235961160387057
0.04721050982798421	-0.05408517735411748	0.1236641394721793	-0.03577274968940616
0.02060365469614682	-0.03541814280906187	-0.01860914353506005	-0.04816224940529289
-0.02888454559051489	-0.006226004023473426	-0.2851069798989205	-0.009202483423334823
-0.01093733947296942	0.05339299634973132	-0.1767382258205334	-0.0123602683136245
-0.0007949827043901873	0.04810098625181523	-0.0571725703065956	0.03776828618486573
-0.009172650620440729	0.05369655315615893	0.2306386861195599	0.107201122453017
-0.04270324095707503	0.01630289841569763	0.09570219731036966	0.080654317086714
-0.03811981920052911	-0.03233332025609251	-0.06786110245074256	-0.00661783089435993
-0.02190696251292139	-0.0006214610694197065	-0.01332922569230063	-0.03420831594861552
-0.01701918774465149	0.00547600316499806	-0.009263582643635491	-0.02983337902040409
-0.02208480325290466	-0.02480917588474915	0.04718314025135564	-0.02791606555603979
0.0160900120076753	-0.01768701021584188	0.158048226197975	-0.0054436501572743
0.04661047458293376	0.01173377238095517	0.02227985720335187	-0.07131068055969425
0.00669668297199237	0.006229725470303061	0.05788387645476332	-0.04102577922029259
0.02180295216692567	0.06025662385995151	0.04845336644194419	0.003602098938849987
0.04725287018311707	0.05667253618514556	0.1789395396711331	0.01002699081745125
0.02118851545850301	0.03340821794749119	0.1115925539108168	0.02582829660589439
-0.004036431846862723	0.01620459320084403	0.0498097202428737	0.02319213990834198
-0.0191955343398819	0.01839567477558082	0.04737444643521791	0.05353081371548509
-0.02432024413170569	0.01392759065722303	0.03822621654347563	0.02626304211688974
-0.0152283487970506	-0.002008011299879479	0.1110690405671475	0.02897679785643876
-0.01680223123198441	0.0007193660954536822	0.01913043984258021	-0.004122044110462438
-0.0178494258265549	-0.03448234705341465	0.02318649646716594	-0.05169683497244337
-0.01428470168520831	-0.009276405998425124	-0.1240104296845981	-0.06990113633819191
-0.01172767919019894	0.02149934080472591	-0.1244632743067592	-0.04094550467819415
-0.01479335678048649	0.02608163594562254	-0.05972532578641291	-0.04626165982801345
0.004173767655026445	0.0266211221529462	0.00982661421886335	-0.01477109398587407
0.013977580289647	0.02009735811891614	0.1399340090776034	0.02251962233137482
-0.005573187597724435	-0.03312473672105741	0.1300079130377884	0.04153307769133788
-0.0304994464069015	-0.04987959911046638	-0.1028159901834086	0.06376469317568682
-0.0287201093423635	0.007389096639047372	0.009570212826502065	0.04476833630653225
-0.005695638372465895	0.01339915392352073	-0.004239033574709885	0.02606159718336657
0.005314507569133368	-0.003894319129396801	-0.03667750753705812	0.01359039131965757
0.02054487569802333	-0.001836017325374634	-0.07476472061532305	-0.01611339619162101
0.0008311208008511444	0.03431246772210196	0.07318172034716047	-0.07002492367589939
-0.006554140530374872	0.03506309896591794	0.04193813703658399	-0.08292616193346294
-0.004591053734677697	0.007141545622809114	0.1001218237057795	-0.09557200718847532
0.01708756517828612	-0.03423531011570344	-0.03606390891924587	0.02447958706178372
0.03134760076942322	0.01161577087618484	-0.09133019339290506	0.05041011501975329
0.02254876985377436	0.0162219017855188	-0.2291230631530418	0.01452887532239171
-0.003874246961128436	-0.005054636480712717	-0.2303441127182898	0.01829588195959848
-0.01534369503568792	0.02471374477956045	-0.1220746149191139	0.04105175738918355
-0.03689210309614906	0.02760662919707899	0.1785164602182935	0.02577869339368093
-0.05692954176097897	-0.03019219992539798	-0.1753844994269599	-0.05435774335903699
-0.01364125690548845	-0.03901004264228951	-0.2130396076725276	-0.03408364859684559
-0.02747634842180409	-0.1308454113752183	0.01992547449379647	-0.03402179354381474
0.005474693360264488	-0.1236120907458657	0.2420313638387991	-0.005210872274348033
0.01329409283820977	-0.04350135290656701	0.4646514942931611	0.08844027170584848
0.008122428446702796	0.002969121334091635	0.3919390666799221	0.1051539116495664
0.01088574498946283	0.06066662550280779	0.549365542354311	0.1095532532148155
0.01728219972079263	0.06444737653643094	0.0875856971680517	0.03635639821886904
0.01516600006994347	0.05298526263678659	-0.08806007294294098	0.01306989471851856
-0.02846439925244945	0.01564901456164138	-0.3510534880436091	-0.01457793004787598
-0.04680537846171787	0.01891784566469821	-0.6681818032294983	-0.03708169797372227
-0.01333710252832402	0.0190149864604158	-0.6538654783511947	0.001600001716503356
0.02640663778837265	-0.007744835819506184	-0.1753028487926474	0.03721589926241697
0.006580928670220241	-0.03527121210549876	0.6799362286214994	0.0550279641434936
-0.004008590669148551	-0.00704653602274247	0.5681647794441491	0.06928605502318877
0.007782276197987749	-0.0006343024806626629	0.3048385385811103	0.0446402887050394
0.01919601696908812	0.0274117460986177	0.08731626851375159	-0.007515767151729829
0.01817408844713178	0.03063726234709645	-0.1267316031262699	-0.1047354380797945
0.02133882763548473	0.008963363446787302	-0.1707850222512509	-0.1519375522913902
0.03146736517394132	-0.02370121302895212	-0.3006844530514964	-0.1608261421400178
0.04358057138493609	-0.02315410874063137	-0.414863964827779	-0.09234985746291699
0.04286047152284214	-0.01763595328228299	-0.3122614577207891	-0.04637831720748495
0.05752130696527333	0.008090510872067655	0.1981230536154828	0.0558042893196819
0.04853183634670951	0.01691187395558348	0.2579245909378295	0.05517054392156436
0.0204070955319004	0.008919734543147328	0.03776217073318237	0.06089650130225924
0.01197179916464776	0.02037046552277997	0.01818978918674645	0.09104999819493827
-0.0001677279012884489	0.04704438782841272	0.217105577919315	0.0383022593561993
-0.054360605326584	0.01568308861685378	-0.06046854858361607	-0.06474848428212088
-0.04495709639699189	-0.01880524553240262	-0.08544385650971555	-0.1052334886806019
-0.04621854538222532	-0.03246063907051042	-0.1394274229323145	-0.09764016058157
-0.005643391007819683	-0.02450592559478487	-0.1498487639770746	-0.09457569641225778
