0.01256529551076359	-0.05788759614316921	0.0006320798607405557	-0.01461055927800609
0.01630944749836875	-0.02982309624302811	-0.0009597796115895772	-0.022544072660968
0.01162983423925952	-0.002685229190935211	-0.008853233037020077	-0.01532496804708555
0.01354595903906212	0.003681976344537861	-0.008329912831104647	-0.002277615377388574
0.007574850271369501	0.02551339656679283	-0.001306896984015511	0.006788251714350657
0.002803748409342994	0.04583909604307872	0.009452626340968322	0.007319910439332986
-0.007622150295242425	0.04187078257527337	0.01617455657865282	0.004990591514452654
-0.009227638350775886	0.03561954892739273	0.01806290600289088	0.001356997658155881
-0.005492306458614174	0.03015861426551567	0.003513631146886458	-0.008093742633703173
0.01450993433859982	0.02647158480410917	-0.03186289371859874	-0.01077621392987578
0.01991378402834337	0.007743047836515803	-0.02581328332783655	0.0007490647674630773
0.009178959422183136	-0.00992095050572288	-0.0002451218517677191	0.006409462716294508
0.008464995961197496	-0.01216576570580627	-0.004595534314819816	0.01002938768887131
0.02272284825296945	-0.003031230642663337	-0.01818147948852347	0.009571384091440354
0.01456556578176638	-0.0101654215855952	-0.01153036013797304	0.007604629666252249
0.01687241270289821	-0.00631747796557863	0.006112339087846977	0.002684600658699849
0.01061801238086062	-0.01927078421659548	0.01775307615116973	0.01519300118835816
0.02318181349302751	-0.0426701958488931	0.01986211079108204	0.01610972787510664
0.02507144386231561	-0.08857138177675848	0.009861736052609959	0.006296014448919831
0.03849448256231813	-0.09548162716477707	-0.001563101285455063	0.004163582263550835
0.04129739543293375	-0.05478836444935551	-0.005823495119267093	0.0005955682138686336
0.02976506546082239	-0.02893897325392553	0.001395923065425763	-0.01179538567043767
-0.01510612053147636	-0.003166383407693024	0.01041531330188795	-0.01767599452486658
-0.01259660098457053	0.0256445135584852	0.01142774353493129	-0.01802010435163926
-0.005633218441655909	0.03154877367145889	0.0103879788123417	-0.01387580426006309
0.002061105028363703	0.06664055566772083	0.005306366425943563	-0.00495261104368611
0.005377231699701573	0.06173848302770405	-0.007292753413180204	-0.003076331820975431
-0.01488157350136658	0.06206715235642406	-0.01045347092736004	-0.003859375675291418
-0.01421108353160635	0.06067700217354887	-0.01185176159489526	-0.00988215025506527
-0.01150463159982618	0.04393514128130265	-0.01606311005594258	-0.007140455466194679
-0.01545978126835621	0.01819354816787044	-0.02764243101981714	-0.0135654462809199
-0.02829702726312596	-0.007698414168554758	-0.01964452772956293	-0.003711449391230352
-0.01528389792442363	-0.004387181162548059	0.004612856951534522	0.003776623738228331
-0.005060412834975747	0.01620354701861547	0.01243739983964397	0.01441875103194886
-0.002060530792358368	0.0303149846956249	-0.01419508430297277	0.002083587732310223
-0.01149216187435627	0.02111390974038625	-0.01864904134273023	0.004792326155980705
-0.01381833886517992	0.004658281837015985	-0.01577982290553778	0.01104192832152094
0.00644238309536356	-0.01144542882187404	-0.0140682347905862	0.01517933377697373
-0.0002123837342212906	-0.04506702849893472	-0.01978153823782361	0.008283259685725205
0.002984127326804883	-0.07223967117462103	-0.005933408874057187	-0.008916625013850247
0.008077774924000729	-0.08130964512952521	-0.01078231224151765	-0.007314019227322768
0.01244205058630159	-0.0896002660077263	-0.005062404165566191	-0.01338523087742895
-0.0022498897861957	-0.08569653552689914	0.01028813429640269	-0.008732248411108597
0.001484722936374311	-0.07445902441127689	0.01598310879080133	0.00794728210162279
0.006226001178785019	-0.06352157367740215	0.0004603446056538076	-0.008430644708789046
0.01010010593615103	-0.03801327725964151	0.00535113220801446	-0.009190413662653439
-0.003916020450130437	0.003519482636510127	0.007695147975678928	-0.0001526833375852026
-0.006879523148298471	0.02029456143906445	0.01185328864962918	0.005047531067345897
-0.005060384165569463	0.0492970667960561	0.01274670399298721	-0.005887531615639111
-0.007083096314784462	0.05700869370298538	0.01512091795829963	-0.005191510395170547
-0.01230289288066594	0.06485086260237591	0.01732435652150794	-0.005369030390039156
-0.01283360109485079	0.08179907636166847	0.02278506576699987	0.006875273308795491
-0.03385205018332185	0.09464788454951141	0.01895402774469859	-0.002015746364596682
-0.04706039346751122	0.1090271466983822	0.002802772181987014	0.008884092233094713
-0.02622227141144329	0.08560448867730253	-0.00804378147383426	0.009511363561422948
-0.01385989629016262	0.07930205756400356	-0.01747528694054497	-0.006155229793890151
-0.01072549065892336	0.0437923476031661	-0.01976142795160205	-0.002496892525301418
-0.04131849995994605	-0.01253320506870521	-0.01298031339466894	0.006925584126577785
-0.0453151312353421	-0.02323507890888759	0.01546326001070092	-0.0003076916287527192
-0.02839843836379965	-0.03657932317436064	0.03202109181031761	0.0085326937574083
0.001963098103223542	0.001588642241240322	0.02881041579956627	0.005886217381039236
-0.01196950323651533	-0.02061641656633968	0.03117402920182322	-0.003872803459785728
-0.005747916220811385	-0.009365980166830105	0.0254498640353828	-0.006373709292493045
0.01791448970764182	-0.02460592030993549	0.01692689827920567	-0.007639911250955292
0.03826012191022633	-0.04756683461472629	-0.008260122965767617	-0.01373445830007481
0.04462695182354294	-0.04083414471743132	-0.02047823044448483	-0.0118843958104403
0.03997161680269713	-0.01840020711667485	-0.01377211451616081	0.001040689763625067
0.01534466402887604	-0.008105234235781404	-0.007004077554630243	0.00569888252711162
-0.006730690017912595	-0.02078451523354504	-0.03524595885657618	0.005697726578407066
-0.01331725696528817	-0.03539553754811364	-0.03157758305415707	0.02325927285329702
-0.02954385104912779	-0.05239328975650762	-0.02217407738408312	0.02162293209683191
-0.02594336758250119	-0.04947809623116419	-0.01063136101449363	0.01418363370996802
-0.01766943992957151	-0.01830063314224153	-0.02407210902229958	0.01361895869661946
-0.005386134252214652	-0.004727251734625758	-0.004145968575465375	0.02054695373998088
0.007164242502239243	0.007164135370529985	0.01458606716458717	0.002177623183884578
0.01638687372643746	0.02085872380049634	0.004996085751833914	-0.004566048887941614
0.0154398685631786	0.0256134310371454	0.009420598925256894	-0.01161696845449357
0.007650952541368983	0.01754308876074753	0.004409487432478864	-0.006927140647578356
0.02009244373539769	0.01956215379037115	-0.004719126051511041	-0.01274449539257052
0.02222281834532143	0.0277581409118179	-0.002143437519797654	-0.005419671694322481
0.01697575529238927	0.00128485949758867	-0.002179781552010655	0.001282909988356261
0.02275979390588255	-0.009853559988971068	0.0016573344949732	0.01166113606302387
0.004729130794354772	-0.00206146893971136	0.009141698509810853	0.01183112888188725
0.00298174979705081	0.01770452557693276	0.001359863590178852	-0.018760699116148
0.01129439757648281	0.01454638441901403	-0.006000099606886819	-0.02704515960916793
0.02374914787178977	-0.0001684356639548046	-0.004149801088130151	-0.01361548364193587
0.02645033212899761	-0.001511119739465432	0.003196216057433224	-0.009358107214543335
0.005707922339010178	-0.02449334290665383	-0.00231223194408241	-0.003623950953551367
-0.004210105195317543	-0.01784724348012865	-0.001252218226856992	0.0121185526278134
0.008156017041569796	-0.01448418764983609	-0.01041996560114522	-0.00018530530961376
-0.01362702173618505	-0.02612114588369032	-0.01770942129651469	-0.007385098302370099
-0.03007753929602522	-0.008439236889565344	-0.01377893902662881	-0.01064240387378495
-0.01340950003643976	0.01355500578067617	0.0002293228053469751	0.004602159387183426
0.001150311939466293	0.02914249230877608	0.01695576393005101	0.01169190837636079
0.006956791819551788	0.02158824215264977	0.01406511991027139	0.02090210641254801
0.0163407398259872	0.00430685429261838	-0.003523676746502839	0.009981640555568203
0.009088696262632798	0.003527328259913638	-0.008546577172513866	0.002236834919683273
-0.001583179113338899	0.005592350248048197	-0.01022989580802396	-0.006124693216738215
0.0003585453517322187	0.007878997998271922	0.006932058833229151	0.0008687835645226323
0.004928997173367105	0.01362302614696737	0.01658623884146737	0.008067637623079963
0.01014102670117175	0.01528189523704683	0.00904704755177743	0.001817895670883046
-0.01729015444645332	0.0110179018203267	0.009607540107389319	0.008027955913535528
-0.02207051296959326	-0.009250430997080838	0.005707968351168735	-0.00451130352766157
-0.008350730226784328	0.01223236413867101	0.00264208536718367	-0.006283446338116097
0.0141921023141948	-0.01346192204480587	0.0006544208804153771	0.001777519779197751
0.03668302594646409	-0.03024663552625344	0.0009243873442750328	0.003737280274853081
0.05790012400828603	-0.003756686963150341	-0.01088516896724014	0.0005856717468278698
0.01972388303479164	-0.004941627343845398	-0.01734622913139649	-0.002579459761744098
-0.006467374689911604	0.000409490459372607	-0.005162709043349171	0.005958398071399965
0.002043149300619718	0.01743152636174843	0.01146962125449865	-0.001808323158485357
0.003258562457824259	0.02457546813350241	0.009636485310760156	-0.004119852869324403
-0.0253683261845023	0.002295549983591544	0.01732734993738786	-0.004027003329087845
-0.02873536971576066	-0.005630006380221947	0.01628920167596261	0.004372645255597772
-0.01405488465205014	-0.005159406885417798	0.01443982680104153	0.005231927000897391
-0.002987353041195903	-0.007434758154938589	0.01643688694873238	-0.004966701758046777
-0.01265662271985806	-0.02588599240124422	0.02013165852564596	-0.01361322327445927
-0.003105833166489023	-0.02583721801526886	-0.00671685510256161	-0.009601197503428914
0.003181285465751751	-0.02271578750533332	-0.03280613037661889	-0.01087853357607554
-0.0005518791289636102	-0.01447517337698099	-0.0286171292926027	-0.0149522500614243
-0.009660830769445617	-0.0153532613379138	-0.01621285430685197	-0.02318614314729829
-0.02613873476850125	-0.008734570140803548	-0.001394183893555331	-0.01144272869359464
-0.03627840271319168	-0.03556179525708759	0.02064041210773652	0.0009098911644732448
-0.02487565414054506	-0.008456526171643171	0.01548263514109236	-0.002355684305931473
0.004301166318515771	0.0214876355365799	-0.014774967959203	-0.00459022775664336
0.025534294615682	0.01664235413054638	-0.008826880376756666	-0.0003267899325516594
0.02104838746969108	-0.01639964034435987	0.006773736080156804	0.008930285570504261
0.0153657077889604	-0.04853307283972036	0.003742058324297842	0.0112606130362334
0.01001064209655518	-0.0558397589261917	-0.001445169706203	0.01406019679831252
-0.005072709626039167	-0.01728869431107334	-0.01595361005549552	0.004260283342932831
-0.01716922950693979	-0.0127837734434464	-0.006595029465079512	0.001027733081147544
0.008882293717054245	0.01126329025202217	0.008798314778092692	0.003888404465798238
-7.009622654967069e-05	0.01603393610838898	0.01422789226229205	0.009722097614907589
-0.01097998080520923	0.009977650935317002	0.007339333465434359	0.0057245414095096
0.001505767530174739	-0.004673860887402234	0.0007284508906651734	-0.001187666792956361
0.005531028716411516	-0.01136917512622056	-0.006592209977897215	0.005437862484664251
-0.01094287892681514	-0.0284820898165012	0.0004606923017068459	-0.003424176452875234
-0.0156316327016597	-0.01839072728261843	-0.005840170038572343	-0.01074069620527119
-0.002027455451697163	0.003689082437300737	-0.01494736923418361	-0.002434404303249661
-0.009784895499947927	0.04493654012119322	-0.0003834211706897343	0.007679938387140655
-0.01294284553472956	0.06535311634613643	-0.003094745175824642	-0.003569810120733515
-0.01325063081601081	0.03236986167757641	-0.0008962750962501426	-0.006924863198327063
-0.009664220935874478	0.02168456461853586	-0.004541412861183341	-0.0004336843172809768
-0.004688687694660703	0.02027872026653378	0.008804719528591036	0.001359988952283766
-0.003446643525009958	-0.006746111952220899	0.01919784928761344	0.002006762489810059
-0.001714024679313346	-0.00465193196466971	-0.006396911689975671	0.006439543926307144
0.001121729733141095	0.008226716335801279	0.000375033298145842	0.0196449758636838
0.0109691988745121	0.0446400259650355	-0.01019972322844042	0.02034513399350485
0.009099337358233456	0.03821050338869356	-0.0166504187045137	0.01372710815126308
0.01541332287311603	0.04478901266003841	-0.006194307920910004	0.009192298235408205
0.008685768777102983	0.04221885650698034	0.01949746674618575	0.01014004104395176
0.008252206076062765	0.06579252998186448	0.01623156623054001	0.002665292839226838
0.009611818436719126	0.06741078714867349	0.01257618674924012	-0.002152708167158462
-0.001507828805739267	0.06325525921268008	0.03376284125278606	0.004201422614286929
-0.0003265946071503344	0.0372998476056591	0.02421863376870638	0.005841762732862627
0.004707954931937883	-0.01155674766717442	0.00658263226702359	-0.006196027115834675
0.008221522317646654	-0.03956203706401936	-0.007287702643654874	-0.007103198440664723
0.002207960978946147	-0.04158410521729008	-0.01514797345877721	-0.005748938794198812
0.01568301445906933	-0.006804408447211449	-0.01186815311849464	-0.006921081458498874
0.008742253128901634	0.0006346492619808056	-0.01989697151323101	-0.007271129849626016
-0.01109400489883544	-0.01821401830893624	-0.01105229446146761	0.001969534316598343
-0.009933421077107639	0.006566522455652944	0.01372084253687829	-0.005539970693856464
-0.003275654282400478	-0.007036986193270887	0.01846617857427239	-0.001342548224523502
-0.0005790083182692175	-0.01230119090422253	0.01067707970332962	0.0006330666520095991
0.01092151504656477	-0.02525456977169707	0.004301559779658604	0.005138873004110162
0.03124573151560868	-0.07072905106945558	0.004511330971368649	0.004100979209274771
0.04298922027306303	-0.08574964276464141	-0.003942759518757456	-0.01329451593741643
0.02401158161950795	-0.090675813218836	-0.007230147775779814	-0.0169778269760401
0.016946835102724	-0.0773910767529116	-0.006672762242019622	-0.02064674481059679
0.01144001016059783	-0.02148544903064872	0.003823489175041874	-0.02020783336948197
0.009130698625270378	0.02644178325079108	0.0106252562839006	-0.01321379052996065
-0.01331773962022482	0.02250036493956043	0.0008162361278454052	0.002875033801027703
-0.02197125752121146	0.006993639955054458	-0.009129776049866161	0.001110164734056558
-0.01267355051683296	0.03457796360845421	-0.003861342112365673	-0.006455989819854662
0.006544202116051369	0.08594126702371313	-0.006527327643043073	0.005629876668461774
-0.008652379244757386	0.0480087790074688	-0.01539095585333569	-0.003917887691967013
-0.01376401996062408	0.006582206361014511	-0.01225520636728293	-0.0031449259081777
-0.009750921141487954	0.0001817420702264965	-0.001156314309531793	-0.0007955890822749554
-0.01694771632030533	0.01208621417149715	-0.00608010917663109	0.009296915392926966
-0.02508251961152137	-0.004067948105352775	-0.02550744732329806	0.008061802534820098
-0.04125798856357535	-0.001667154882341028	-0.03032054790246884	0.000191348647835364
0.003373900670950046	0.001197100360608306	-0.01556263631316033	-0.0006034173025444152
0.01405087864546873	-0.002408211410440118	-0.004093560598936981	-0.0007012619659101446
0.003625398539700168	-0.009478863367041733	-0.0105246822323317	-0.01127670187342466
0.02038028728807089	-0.004084458583579908	0.003267564673649214	0.004570863369859075
-0.01447872544436811	-0.03557249797227761	0.01815281088764916	0.01760065459445157
-0.006441480622493779	-0.03946961895146885	0.01832532053417145	0.0310247937227568
0.007899574387209896	-0.03104115918209248	0.003783530933764108	0.02655549673393549
0.006000873792625691	-0.02520333514512208	0.001610091193792435	0.00532128178554513
0.001115344881850217	0.007530956033357712	0.01945259843708831	-0.003251925100068567
-0.01754789999560267	0.03092266549215012	0.01692441916036798	-0.00755548304034908
-0.01396950260284667	0.01876229513854381	0.00797911281247396	-0.0082836108999353
-0.009458504099963742	0.01820337502102972	0.00299438965050343	-0.007398932201089233
-0.01067919201553009	0.02144673388134086	-0.004913166568081941	0.003090784197178489
-0.02185548836132684	0.02301397601500423	-0.003188934737910603	-0.007176246644879709
-0.02083917468094904	-0.0005706594292988578	-0.0002674943361869642	-0.01487140903065929
-0.0171652658660023	-0.01480459116300803	-0.004720787325768751	-0.01566629742844855
0.003696860549201186	-0.00985650903208374	-0.00173718576332422	-0.004402597023150831
0.02411819167712644	-0.02658627397061572	-0.003920809920866011	0.0003571464066647773
0.02931935644469433	-0.0241820347548319	-0.0123095244498709	-0.002747918479290572
0.03785013337181532	-0.03146175358405069	-0.01428862571059752	-0.006493992158305615
0.0172273184966932	-0.006470428544025127	-0.01939549678812329	-0.01058603073891239
-0.005496114563927279	0.02903479325081341	-0.02497846405887567	-0.01483362309137628
-0.02128507723060702	0.01877818208368958	-0.01477673488730331	-0.007627198118882206
-0.01634819430653225	0.008535998007147085	-0.01679596679577047	-0.0005334491641200683
-0.02687297147722564	-0.002075399677625781	-0.000774898718864494	0.01972565872092816
-0.02376643550014254	-0.004810322060548712	0.002926982460042545	0.02054024105321889
-0.01505575605187957	0.01592551442728472	0.0009588700139350364	0.001914412091753054
-0.006677503182401803	0.004674766467059626	-0.007043760759236111	0.01025802362851759
0.0001306427117139761	-0.01664778643772519	-0.007448026945333734	0.01236151773018289
-0.003769588740678644	-0.02479892706174523	-0.0001606438874566157	0.00911583162837761
-0.0007840003055260813	-0.01600882533820334	0.02139987178972484	0.008095929872225217
0.004190289409736544	-0.02434039909745518	0.02900772496867026	0.003357714281466607
-0.009769065047404733	-0.04281047274101834	0.01974073861074684	0.00153100186015545
-0.01068294067938389	-0.008268890520349306	0.0192436917141284	-0.002187076971395167
-0.01225821734087992	0.006395428489960042	0.01754722572438173	-0.01249493667702605
-0.01113703051268224	0.0149369235916604	0.01659471873760407	-0.009590254447700961
-0.009611037695652601	-0.007420378400594688	0.01891288633812824	-0.001133658909559909
-0.00573238914030319	-0.0140795415650819	0.006619053666275753	-0.002436328901794709
0.01593930228524651	-0.004268596749816614	-0.01467052067462061	0.001197691803677525
0.02599617804553352	0.005844303636543576	-0.01770992396104845	-0.0004806619456478463
0.02867580939849985	0.01163383011811383	-0.01039534882915816	5.717916558555452e-05
0.02420603897849986	-0.009178032668111362	-0.01480837445387867	0.002433894936328953
0.02016031234613415	-0.02406568606944563	-0.01861532043326472	-0.0009534198150808126
0.009627939851503904	-0.02114868993613879	-0.00519400678772661	0.001811071492533163
0.01071023846525528	-0.03425939427619604	0.006727725868723929	0.007148017337882816
0.02199527158654263	-0.01769639644567523	0.01511356035615358	0.01101319640666836
0.0231392956623558	0.03714132021680314	0.01375894063857653	0.002385486457125505
0.03796310065472852	0.07470452553745087	0.01766801887903461	-0.004395322506543238
0.03509477776004188	0.08915824231337711	0.006214436143437366	-0.002276195903837117
0.02120053945066349	0.1129373040213273	-0.005874079392166177	0.0004212940911434064
0.01746713942326102	0.09183460207182505	-0.003887425124882397	0.01269897864675131
0.01484873338236905	0.07188548576447709	0.001766070162723323	0.01115412464004758
-0.001528702080413287	0.04809140125996247	0.01244867058097821	0.01564789995598469
-0.01155866725077151	0.02532773283824626	0.01709396184864159	0.01467891162265693
-0.01828428766046057	0.02168203470745225	0.02704918793353091	0.007543464975478385
-0.007939584296678737	-0.01912104998815762	0.02677465777737437	-0.009523818915432702
-0.008523778270368907	-0.09541093031772972	0.01790240725507173	0.000233186673348716
-0.01008451387870586	-0.1207592776399791	0.002099355751110546	0.006166525320333082
-0.01149235542355382	-0.1035985501103091	-0.01124227551271205	0.003420599254563197
-0.01564271169220532	-0.1123449053216907	-0.0244297112345408	-0.003442924001449252
-0.003147686645943359	-0.08646521526853738	-0.0304218357396384	-0.02702274035368795
-0.002760680131338939	-0.05731262339772737	-0.02035467900004002	-0.02255322182311579
0.001884142426629945	-0.02211950734807636	-0.007959386097494527	-0.0205499649385043
0.001983717934897075	-0.01247090208301656	0.005974146423800897	-0.01942457137715721
0.003774212753307561	-0.00910166725404467	0.002583690104087183	0.006607271362687996
0.01614182460878363	0.02022410054130709	-0.007948991925454056	0.005205665560479629
0.006342861293246731	0.02880587629948028	-0.001828456931363798	-0.004968616554514114
-0.02349848338159521	0.04959725273387187	0.008367366947730121	0.002217035592220646
-0.02183228879665254	0.056233935382587	0.002857945370525041	0.005602706141327915
-0.01868554966090601	0.04397725549558194	-0.008081312667892979	0.0005284497970798766
-0.01258747310353932	0.04490591175805444	0.004083004337367428	0.003634364743812146
-0.02944511392342016	0.03424505016388846	0.03463681084275941	0.009057730913943246
-0.0176860495274239	0.03806140850262747	0.01284974481575394	0.009850767772771347
0.01602972545809748	0.05553849057041199	-0.01324389322550212	-0.004977825245762566
0.00040633055120823	0.04473999141953405	-0.01192231366614967	0.0008974689041808104
-0.002645237258203695	0.02590484486021498	0.00617471347078519	0.008786175583695262
0.02203673917420804	-0.01032328435840079	0.007565431949873043	-0.001670898493976653
0.01627445031641484	-0.002358316064140263	-0.01956701852951759	-0.01005569555071404
0.002467923599432164	0.019931825215826	-0.02839810670385005	-0.01205266867397191
0.01718485963206328	0.01818482466625167	-0.02084415265534334	0.006144208567623742
-0.005055188014493727	-0.01813625211972273	-0.006703621979217231	-0.002556269441444105
-0.009364746700102846	0.002172865599602812	-0.005534532915634821	-0.0112681571395939
-0.005505810677638633	0.01995312256353494	0.006870086049195354	0.001575860929413141
-0.005650723598431958	0.02013966002721059	0.008741062115994498	-0.005923470284789941
0.0008063333156170763	0.01905319226110229	-0.003019691119065104	-0.01828277190223154
0.0007333245227408168	0.006677497865372202	0.03229184069713392	0.005933357372550387
0.002809421723349293	-0.01271416814717265	0.03597764545639166	0.005633393668643396
0.01300216331151586	-0.03133627156259093	0.007703399239442596	-0.006522185539982951
0.01280161493368153	-0.04420212723159905	0.001287701939396444	-0.005376617760159572
0.009721196949995256	-0.0432095538732767	-0.01045018546491598	-0.01217891321541884
0.02023902087793077	-0.02279295759407088	-0.03019378164135082	-0.010908322959332
0.005676097882907924	-0.02825141865090927	-0.02488174455002033	-0.00746958679476455
-0.005228195057727092	-0.02238830690646348	-0.01909460574204783	0.003995045571859533
-0.002148751154039754	-0.02005251012343857	-0.004168410234598879	0.01201529839665868
-0.003227143241143847	0.0007547166875054687	0.01171936233091131	0.01727459533703468
-0.0139173802943276	0.01070022645264383	0.01892173483942624	0.01649727999221841
-0.01728338341632974	0.01508251449024823	0.01619015457229613	0.01122139355982921
-0.02099931200139775	-0.00414290234445041	0.00821757712558494	0.005505954558459666
-0.02004820381228128	-0.01966949773026425	-0.01188735669932568	-0.01205185052678732
-0.0177060599963758	-0.0147580477788254	-0.01180003244384171	-0.01005493758075159
-0.02177924301563586	-0.01754837189297639	-0.002951767408720077	-0.003817321658004524
-0.02174979877111848	-0.006930489687803777	0.001441541512551439	-0.001019239807946913
-0.008220493566058669	0.02593757686298982	-0.001516068700461014	0.006974982745948401
-0.002290379131297367	0.0175212529954955	-0.003071771162270797	0.006400659148375119
0.004448385996753953	-0.03468545331438153	0.004365994261021616	0.005921903436628814
-0.00231457429149562	-0.04150717561637188	0.02502710182000627	0.01732241493055574
0.003466688423188618	-0.03541162793545768	0.02589767586480637	0.02146735129258246
0.01737522478914871	-0.06687765018241765	0.00833680752071562	0.01043724602982194
0.004138737175204787	-0.06465070802786355	-0.0159889916971764	-0.01467484361735957
-0.00151048439276608	-0.01491679360116477	-0.01804233376488336	-0.00198459474881234
-0.01100909767922826	0.02490559220153472	-0.009736116715913023	-0.009320069592695157
-0.03754368121891703	0.002676138399407115	-0.01450210534601498	-0.005783667276275046
-0.03423158119680111	0.01241277930388476	-0.02474702066098149	0.005211557390921438
-0.01575995260392273	0.0541431181913903	-0.01639138447617306	-0.0001855026140124147
-0.004915032332401195	0.07036322732190824	-0.004162443876706657	-0.015062421443683
-0.01553129722328178	0.03286939917959434	-0.007937493295674797	-0.01038685584957506
-0.01422909996659005	0.0489827204358295	0.002775883113365953	-0.008404088513803672
-0.02001696541128287	0.007083470589022338	0.01410756764239451	-0.01287529437879424
-0.01413824450622899	0.005922980739541584	0.02202192885502743	-0.01512472563096889
-0.00647221146186046	0.009647448950281957	0.02472403561544857	-0.02140879271834174
0.01172889753003573	0.001580602350174808	0.02587896168866805	-0.01123617134406741
0.04824192123301314	0.01829230627803822	0.008152268034569072	0.004130235475088148
0.04902094547202624	0.0001723525911003988	-0.0100120697391017	0.005797225402591431
0.03397540779189976	-0.01773770681151389	-0.01273260463036744	-7.614637288958707e-05
0.03234078367982499	-0.03250072526296845	-0.01935796360950801	0.008200930180650181
0.009434799663602987	-0.07805308044680632	-0.01837622242272078	0.009212608842905617
0.01359299050602893	-0.07364053954110053	-0.01416410226753975	0.006910499713382742
0.02678055353963618	-0.02559733204578024	0.005317096165075873	0.01074117340502973
0.002501046241330816	-0.02336458606183699	0.0003000741646648769	0.006070005445772587
-0.01632920818928815	-0.01051743972999317	-0.01651132850556317	-0.007401197615837977
-0.006639224941511875	0.001731671243268917	-0.02072709590037229	0.00152887213316943
0.003416004571613075	0.02702399567318596	-0.0320368566378962	0.003678079764287827
0.0244273946594622	0.08353422282693666	-0.02719053867805415	0.003530401457396864
0.02986018727757298	0.1108378120796123	-0.005706741479807959	0.01528022727027026
0.02247228523848855	0.113073495135423	0.0235633448829682	0.03273952296163124
0.01127587167210863	0.09529881522718092	-0.004480105487513635	0.01952211427342471
0.01133619172775412	0.07831475898849102	-0.008910832271118278	-0.008313758479890155
0.02368106143613836	0.04431157801518072	0.002395984720501424	0.01072625705531828
0.007387059206558015	0.004907370801709885	0.008711486687570418	0.02806047283381959
0.007505034876088319	-0.02908945290917278	0.02164706807550599	0.03352057469205454
0.009995012212514755	-0.03024606522221391	0.03762164272584853	0.03942677149286861
-0.005349921321344172	-0.06353630639137652	0.01769780023511231	0.01105982102517091
-0.004986024821404022	-0.06377469637137341	0.0002268235706564447	-0.01245796335847147
-0.001274979793784455	-0.03013284970002389	-0.01289997284429074	-0.04418701066007275
-0.005945737748889985	-0.04069127391030909	-0.01644698468890293	-0.04621300988839135
-0.02782968657692673	-0.04094193284104983	-0.01201837958095034	-0.03953626685496711
-0.02756364475388077	-0.007703993283693551	-0.007841187994623319	-0.02627354707665618
-0.01683651575333701	-0.01694386455703129	-0.003732022738591405	-0.01331617908633708
-0.004441706736129111	-0.03151735911032613	0.01097370207253712	-0.01036426114186917
0.01840981825294573	-0.06634111590805961	0.01006254868933861	-0.003179456697731979
0.02005442082872877	-0.110772002350806	0.005229350161080484	0.01195149157037222
-0.006059267958070195	-0.09750453582326285	0.01707924523732259	0.01802533655792006
-0.0006704905112275985	-0.0009103483212747903	0.01934411002318596	0.02000007503230116
0.02198760347983449	0.07145222003925342	0.00205303049336726	0.01877022470977255
0.0313430579385144	0.07923504587128818	-0.01970003155639741	0.005708141732844727
0.02716989671874376	0.1016261642029712	-0.01249830456330431	-0.001781975534639765
-0.004410439378864079	0.1044875678569755	-0.0152359505510782	-0.006290691514057895
-0.02468069287124873	0.09069898546263068	-0.0001032263926446747	-0.009025724395095764
-0.0443057719527389	0.06000013157448428	0.0007321828855272381	-0.01181323145418565
-0.03610444578371837	0.02784301204702295	0.0111042063534944	-0.005240231230004421
-0.02145764498536358	-0.03810536644085174	0.03444839986325824	-0.005528459842860788
-0.01882428379097386	-0.08248163927156454	0.01949400621832561	-0.01467873146416634
-0.01614720899043185	-0.08216308781845144	0.01783090265488926	-0.003898929773354322
-0.01224857574702782	-0.05887259020365733	0.007695850420038811	-0.00989739486086441
0.005664496970267435	-0.03096878292463074	0.01881004063963012	-0.007989300070499042
0.007004379416841683	-0.0498744133644007	0.0438764565462395	0.006363968557876752
0.002344142601126861	-0.07971174591386475	0.01570903235074582	0.01015339889448584
-0.00297882505339943	-0.07623603899298594	-8.899426624413745e-05	0.009932115358673404
0.004833909022800507	-0.04444800879053904	-0.008258542451263586	0.006931727419389909
0.004305220068557348	0.003543305870581985	0.02157181611501122	0.00126233778608707
-0.02053332660844044	-0.001846939064789313	0.03088964157874534	0.004967824817290491
-0.009785736369728341	0.009078192323857755	-0.006186844391044781	0.0009597775172874763
0.0139897409057035	0.05361218913263594	-0.01313856975224318	-0.009979721886705864
0.0131983453601492	0.08185475721478191	-0.003490760734649067	0.004122419047172099
-0.01322506012279916	0.09618238588964884	-0.0006269952742101838	0.02443345712088842
-0.004874972569539135	0.1258056632157635	0.007492739937503354	0.02211850186590894
0.007315263679091914	0.1083471798915998	-0.006441153641191489	0.003993647615350039
-0.0004814095518829639	0.08410183196439895	-0.02651050490185667	-0.01174428201870128
-0.001424709875720211	0.06792396356793023	-0.01531504881803429	-0.004881268617273575
-0.006003189617636974	0.03960658630280242	-0.01045761499443148	0.0001910172460589676
0.00444985879818805	0.01182114687440252	-0.009361062401043506	-0.007423876224351266
0.001613605523115584	-0.02956370628948215	-0.02129862469679071	-0.01671163922423728
0.004521015504855621	-0.04392321588925913	-0.02342746794118516	-0.01398127801857999
0.003233167586055027	-0.05061780032189864	-0.02071023791081412	-0.01767527267804816
0.001317516693055266	-0.06697230316686606	-0.001128947545440699	-0.008858426182997184
0.01160723490082	-0.04793251341871233	0.00514390595206281	-0.01125970160927929
0.006454456815058826	-0.04157882826329193	0.005175760779723333	0.0007062463774377087
0.00471874305127152	-0.05707519441941861	0.0146806131974445	-0.001624542721620068
-0.005788798975139921	-0.05097847434371631	0.009478359264071486	-0.01425379564061883
-0.005670083137461125	-0.04818998275322718	-0.000272523808237326	-0.01347993876129603
0.002149042473351076	-0.03589475076695816	-0.004861798780423833	0.003229130627644429
-0.0003725304085748877	-0.02225847807620381	-3.142125555774114e-05	0.01081083261607574
-0.01053062916046036	-0.01402899715534374	0.008658804994177706	0.01678344932816248
-0.01791511523226615	-0.01971449866634796	0.01677115306427121	0.01352525435616229
-0.02171600708082894	-0.02459056172331025	0.01090497747989478	0.009488989960626294
-0.005234685400479082	-0.02006585527174639	0.01001325221379981	-0.002694787800615115
0.02822384758383422	0.009331692795581817	-0.009290825550333963	-0.009505101150341543
0.03680348891770376	0.02572016645150172	-0.01807074285783066	-0.01545284411642471
0.03122246821869803	0.03526078785541698	-0.01668855874789175	-0.01994851491808185
0.02139643859390757	0.02943539977105362	-0.009912624288477329	-0.008963641238238226
0.008220740833267289	0.0609133066818231	-0.009913551457297876	-0.00553898860853248
-0.009663240373406788	0.04345365209434765	-0.005816794089451579	0.005939258101590538
-0.008290407088037384	0.03194575173065922	-0.008327036511034289	0.01266392392649869
-0.0287677413172031	0.01350267706565267	-0.0149469976313503	0.007126967676613607
-0.02246919568480112	-0.01637766478417663	-0.03359857599463759	0.01199541674114246
-0.01627144796765273	-0.06417016815893663	-0.03487679453315442	0.007108936799668073
-0.01236349891483476	-0.05501429580594656	-0.001353924198519247	-0.002726105588808875
0.01112233424789466	-0.02675408783128233	-0.009140255741225654	-0.004611685010155199
-0.007520037210065048	-0.03049966688603342	-0.01769648696608997	0.016454042892796
-0.003717232043294542	-0.01047508092401809	-0.02965457182914536	0.006300617801238993
-0.006570875369813986	0.01030402914271353	-0.0164343126665973	0.0008766039835043566
-0.005993852555615698	0.01155818011692235	0.01251761039890677	0.007908049763162946
-0.006696374740760638	0.008122471533165233	0.03246519879471097	0.01228254366559501
-0.01719217285921599	0.03271020953854302	0.0291759716839266	0.01315191001650944
-0.00733930726784548	0.07231586716339589	0.01946328939221958	0.01987921818012799
0.01367574327133439	0.07398883418178656	0.01200344036286933	0.01402386423161475
0.0226894983941067	0.05928868024894683	-0.000366589900218674	0.01706245027319537
0.008554467188122906	0.0287880989454512	-0.006534490183895524	0.01861909682508743
-0.01290522197355705	0.01888691925220737	-0.01210559727087585	0.01277578269642109
-0.0004298389466713811	0.0005263643646435759	-0.001732000275398368	0.007497262649394201
0.003013426383545072	-0.01455788882080459	0.0104750845597289	0.0004415740610808632
0.01649446841374615	-0.03993056384097298	0.008127792479974321	-0.006910741378543525
0.01339029490345613	-0.04427841605370584	0.01604777551116472	-0.01384289965533187
0.006982230824106463	-0.08053942450428014	0.01790199524633604	-0.02444576048371982
0.005616341703647636	-0.09051312707997998	-0.0004685691759187436	-0.001985626715940668
-0.01899625248115325	-0.06347096907330586	-0.002033390550720604	-0.002227244555473292
-0.004015733668285143	-0.08894358683781274	-0.01100860936574783	-0.004690643214809019
0.00424928539163934	-0.1029849514317754	0.004173458652886334	-0.006122814354420529
-0.02135972384869498	-0.04849887095676379	0.01263267714208048	0.002594179741166776
-0.01355478100021775	0.03736157938937926	1.205431741066527e-05	0.003949013903048137
-0.002591919792974631	0.09408232049482911	-0.0227808432106465	-0.009646724605780421
-0.00213148466606102	0.1049684811386454	-0.003943146840693927	-0.0009674133409723938
-0.003941939638045705	0.105867715601082	0.02235800057109921	0.005186808197519061
-0.005594002275596328	0.1037519418885391	0.03222398280497641	0.006382781049961025
-0.01683936451467491	0.05743398156517064	0.01352014560081023	-0.00523373262238892
-0.02042496697678473	0.05200320930530922	0.002206865134792522	0.002578826914811034
-0.01787049095849996	0.02497421124897476	0.001693785455740223	-0.006201398770252027
-0.0002626714363360925	-0.02392071930368005	-0.008385847963093074	-0.01356345761617455
0.009638769859446658	-0.04095676317579859	0.003892728023623257	-0.02079256865739316
0.01805823293817028	-0.03503852799800592	0.01530048984035943	-0.01693875730655696
0.02212763018140422	-0.07115512192006924	-0.01152865851850512	-0.007231423260591008
0.02314776167011653	-0.07563083813962018	-0.002707746297085672	-0.006010245070709455
0.01220066593555289	-0.08523182921611085	0.002076041936083955	-0.005103999432451077
-0.003924811905915904	-0.05829391244638544	-0.005157592894092122	0.004877006468826978
0.01764414511943163	-0.01883668007068956	-0.03800791945788764	0.001452247891594637
0.02687583572439148	0.06246951080693175	-0.03635524594862239	0.01562286252930089
0.0100784284635986	0.07927498206985738	-0.01760592842732578	0.009833315090840728
0.01169521105807405	0.07843254260962	-0.007793657433638859	0.007326722636873081
0.008369039280503239	0.07068031032276488	0.007037477012017262	0.02019543920217203
0.0005543348944350362	0.05237698094250486	-0.000803410855125259	0.01524815005690601
-0.008789665343700176	-0.00480698572872066	0.0181611563095406	0.008947990333422419
0.0009027782936748474	-0.005117368232596647	0.03557272644838253	0.006440453988439746
-0.002403219104673432	-0.01168621060944441	0.04357350630368045	0.0009660059465433924
-0.001102114504598442	0.007410353649315781	0.03015552573216956	-0.004774355199582003
-0.0005696904850291873	0.02989574889784417	0.001897423666307047	-0.007191702725267437
0.001014189926813315	0.04458955403859263	-0.01795373335926408	-0.01879348015381416
0.003180910482327477	0.04359988442526808	-0.00458418635914505	-0.01575382904462318
-0.002195948367282075	0.02619370436745941	-0.007218912631742192	-0.00101017956911064
0.004820549334993276	0.03190446876277387	-0.0006853855818815409	-0.009646630519540119
0.01754079657430385	0.01166235393384771	0.007586755151199382	-0.01110340004728561
0.01400686266533929	-0.02152522379838821	0.004563204781463086	-0.02011466903838743
0.01488764911720861	-0.03255491319579199	0.006867163113955534	-0.0006101051825242003
0.007330372641148154	-0.02471950859028433	-0.005065450852898921	-0.003370675735216803
0.004939957181880801	-0.02211959338933562	-0.006440425086111795	-0.01358726959166355
0.01818229979362051	-0.02371333960925071	-0.003352306708577377	-0.005915196354465325
0.01926637756055201	-0.01203755090705645	-0.006827644518684027	0.007207217211879774
-0.001449215348102964	-0.02652324673290959	0.01760257678145859	0.008340074968733666
-0.01211870549320934	-0.05371489842585876	0.00679731752255931	-0.00772974406868319
-0.003915359713825692	-0.05700651504642414	0.005716120700504162	-0.00681589030480089
0.00677387430150718	-0.01440176060733439	0.005428601351161295	-0.007045895574669254
0.007574031818131485	-0.08776474681441992	0.0002173100907145343	-0.01536590652171074
0.002105970363857229	-0.04545430364758112	-0.005887116920699669	-0.01546562093221215
0.01496296894280196	-0.0062729373165402	-0.001417494227810456	0.005939415645123358
-0.004192062211880974	-0.004493400132917371	-0.008076397476006535	0.009611716904099947
-0.006934381799895166	0.02902930841799968	-0.02535664474268079	0.01879440510650299
-0.003054887714162841	0.06597607048929105	-0.0113412767900276	0.001729716822297966
-0.009152158912341233	0.06008176691963149	0.01116964034304669	0.0009769247493941371
-0.005565604407272927	0.04104985044548286	0.004717802407160373	0.006067314103076894
-0.001119100464972863	0.02859992860042099	0.002972695740007907	0.002600042270494245
0.00550317552786527	0.005124683288254073	-0.006514198446478234	0.0003718109323419738
-0.04148059962150181	0.002020286004978408	-0.003711321112013865	0.005497403732431707
-0.05467296303086028	0.008712114454845644	-0.01205387286624647	-0.008423258471673075
-0.03529220701121741	0.003291834682895423	-0.002551093503563323	-0.006315517905218883
-0.03194846222082557	-0.005305518164746025	-0.006925269454655681	-0.004892072581590503
-0.03508801855795975	-0.004336983568184283	-0.009897525688748065	-0.004208160230136331
-0.009762109556949075	0.01636545010068925	0.01014403524808523	0.01453389049818776
0.005015121970880403	-0.05391333431233348	0.01522478174885319	0.01621322670720696
0.001875572528369174	-0.1332435254895632	0.01711577149021744	0.01018905933449386
-0.0006111510144399348	-0.0934375104215245	0.002095658398419808	0.00177451739597195
0.01257056262832422	-0.0688440696456418	0.001115463147165619	0.008073830631909296
0.01849333182713734	-0.002856515709219603	-0.004963654018152956	0.01342858266742992
0.007658846588838046	0.06097466822121871	-0.02430731836791885	0.01579319746432796
0.003285204095315692	0.09703654197453279	-0.03717339811205122	-0.00116198145188927
0.004683299160932677	0.1060715359594577	-0.04910154996128392	-0.02581155836664362
0.0008845227010356039	0.07300494575790965	-0.01932502832184656	-0.005871517162568817
-0.008814123216418711	0.02022962412688092	0.005300764333046933	0.009817034882622852
-0.02824461767351558	-0.03996693123678601	0.02257342516389317	0.003604708158132167
-0.02057763733868186	-0.1031215839463167	0.02165518850506487	-0.01031877017659732
-0.01005966769823179	-0.1223384653478597	0.0211586052989676	-0.005413935637347103
0.006686100261317248	-0.08019338096897659	0.02697080158411028	-0.004426406507454383
0.02077492712845227	-0.00767432236597649	0.01056143386323015	-0.0001391991998202433
0.01124741941488647	0.02653054377246491	0.008123484123467284	0.002140870461237791
-0.001110232822408459	0.03589819109976404	0.01216093386550524	0.002402926875349899
0.005550079053798805	0.03978055276363011	0.002679514848533921	0.002821580205336851
0.01557726208910466	0.04624256564897396	-0.003536078431862404	0.004790509539924819
0.008985182806271337	0.04676900686469967	-0.008940663743529836	0.01557470189755317
-0.02328581969188304	0.03146570800640675	-0.007755463082240101	8.751890463419104e-05
-0.02881861404782569	0.01891298326396236	-0.002694814409080806	0.001206435712452213
0.01466146397000632	-0.0004838916556987975	0.002586699074712026	0.0160915436902605
0.009522820412547968	-0.01559881043974763	-0.009535811459849318	0.01077526887088258
-0.005785798924783517	-0.01740499370865691	-0.01268886203199064	0.004731157029339666
-0.0103161852037403	-0.001559136810316853	-0.0192554154102673	-0.0101047735720646
3.069339953218331e-05	-0.01929317579769672	-0.00774251261512738	-0.007084044810043938
0.002058737569500192	-0.02637675127653592	-0.017874193003225	-0.008678204674799461
0.0002360789784914632	-0.03137653051231534	-0.0395907368576186	0.00796478673715216
0.003917214551350432	-0.007015095132942174	-0.01557368382644839	0.003365990269998689
0.006646750824257312	0.02572144667128839	0.01982448139687298	-3.527128603630507e-05
0.01111100660717597	0.04302842324738138	0.03128647924809341	0.004260302916102372
0.01605254918580487	0.04157239148000767	0.04358027944288159	0.006827023027497204
-0.006006808561953056	0.02489628320830513	0.04416961993015477	0.004461305872131546
-0.005622533796807752	0.01834697924374379	0.02612415691155023	0.005590830453060927
0.02856702565077058	0.02143478609653427	0.001922337223578341	-0.006066690540082467
0.02135172320466316	-0.004608213162080601	-0.009266816377025502	-0.01091467239903767
0.01322475465343007	0.001777423610849308	-0.01221589531764447	-0.008661770600465387
-0.005364925502923766	-0.0123663724536063	-0.01568293873965624	-0.006321639715839282
-0.001444373172067911	-0.0254186971144415	-0.01341633187206586	0.004331272313450378
-3.539265816779031e-05	-0.02901202694590775	0.001151256566470782	0.01436266060785918
0.0165385015481676	-0.05929346156646562	0.00224600332919658	0.008059576776763567
0.01147010000863655	-0.1353632943019962	0.004745950621532881	0.006347995873524189
-0.0008407855427843556	-0.1325939238353651	0.003635540290317073	0.003668976905214294
-0.01053280560700815	-0.03901070139435896	-0.001901779671161878	0.004356965203351396
0.01045201721914873	0.07148042605413733	-0.02513935207989009	-0.02110599198059072
0.01022124999598878	0.0954615804151258	-0.02925086849816742	-0.02288930840662644
0.01592988746402283	0.1277603547498936	0.007237120355160391	0.001307227771962204
0.009820769303856353	0.1222802909786833	-0.002721343409334688	-0.0005154813461789313
-0.01914260509444498	0.07886537198458969	-0.001708265008908644	0.0001001431824230943
-0.02188518817289943	0.04568176587069952	-0.002584689749139501	-0.002964470418334294
-0.02009211820656246	-0.004585505906453955	0.0009991648059358039	-0.008731455749046017
-0.007816410045069975	-0.01440180686252562	0.005972936720797298	-0.01148793712443138
-0.003913501586980024	-0.00728069028485001	0.02295075724180213	-0.00505482302362745
-0.005625028656286193	-0.01845819288395395	0.01439701140231229	-0.007612411292785796
0.01302329899319947	0.00352975133313894	-0.005041942707000822	-0.00347878995020038
0.00556148596190692	0.002158409378437285	-0.01344885814898469	-0.0119102572684055
0.01167211100474763	0.007104558240128405	-0.0235364530696319	-0.0004674292448663362
-0.007551601980704495	0.03496263280402589	0.004118560404869927	0.005402334973009707
-0.01200094207115234	-0.002908155506390963	0.01543877139615669	0.01740962256912909
0.007504275106554869	-0.05442724354358382	0.01591416821118568	0.01817997527960088
0.006824344853941882	-0.05369761076033519	0.009680013704192103	0.02034075062036542
0.01393774903243858	-0.05320290433471402	0.00248023972272107	0.02483445546790426
0.0162488591013946	-0.02840208960517994	-0.006006792595534593	0.01075509300231508
0.005941018779171046	0.008301088857454397	0.002041916195597289	0.005957486350284998
-0.004992597255242637	0.02806717827006406	0.01988064338477613	-0.005016267276411083
0.01075126311924328	0.06386983483972508	0.02520399245383913	-0.003472904533582603
0.0197733500264025	0.08171006091939981	0.02148217979080692	0.001810983966660101
0.0202950555953097	0.05656636133039951	0.006272716908626453	-0.01382188687243929
0.007290576162355392	0.02998580008297843	-0.01837659088123975	-0.04108261253606266
0.002879429103448166	-0.04944044718201599	-0.0259527853196171	-0.0381058167517332
-0.00617584045025356	-0.05025481556793016	-0.008455052734739656	-0.01596647382402088
0.004493629901074601	-0.04877167379019604	-0.008042454426195021	-0.006602740705592511
0.01297514960204008	-0.04956327639892796	-0.03187068729943471	-0.006924688930804525
-0.0003075202487253049	-0.03119979818850604	-0.03309892912488789	-0.01321864912420979
0.006556183997754685	-0.03000917689660804	-0.02349728235401956	-0.003008790389829375
0.009926161907130889	0.01204085229872823	0.006830090366974704	0.01318588617543906
-0.009284777221596959	0.02795996648354322	0.007355404829972362	0.0148112841711741
-0.0212588998267616	0.04593146807209945	0.005839933884575598	0.01890860146550604
-0.01024872723929952	0.06395124643410637	0.0203378012284177	0.01258916167986285
0.003186539442434563	0.04357944760430334	0.008404213025716178	-0.001762881840595105
-0.02167262960041356	0.002271675017879807	0.0001271049208511218	-0.008327629694844184
-0.04416465467816152	-0.03811947772002451	0.02503297161800436	0.004967586508772903
-0.04458801925727871	-0.02500518819312654	0.01523660668512369	0.01375824345246961
-0.03192869198021533	-0.01213019455991354	0.02118962287217611	0.004377849150880713
-0.01824999395797628	0.007112740555475007	0.013685938308191	0.002836310908909342
-0.01857839574528365	0.01374670570907005	0.02314439840205488	0.01658261826797823
-0.01937406001958695	-0.003107011572577908	-0.0006933499048125198	-0.002203070357162646
-0.02051555909940314	-0.005397404498444877	0.0004370147428318	-0.02643273457705359
-0.003993614686671894	-0.0154195385470515	0.02254481192079642	-0.0159580705469898
0.01897041243036431	-0.001721585479835883	0.002122104463072986	-0.01257824301377108
0.0315626752976244	0.009311359720315243	0.005881622138044287	-0.0001544415363341595
0.02191718125300031	0.01640015095485543	-0.01574169698180609	0.001687451484380601
0.01397232671423716	-0.003439526402817295	-0.02975720898605816	0.005379107988321482
0.005550961521246729	-0.05269934270885359	-0.02160752937353194	0.009561051206719042
0.002588733869596228	-0.06227507909959158	-0.008055407852483123	0.002918592803253038
0.004634630045091931	-0.0494831851278904	0.01966632448978841	0.01675351234071564
-0.01160673603904422	-0.08226560703386841	0.009273561892448171	0.02081772841662921
-0.01034359443828881	-0.09442104966424696	-0.007057130397676064	0.01064698965214303
-0.003263549682262295	-0.0794308528181104	-0.0137706467601455	-0.0008681524888758288
-0.001576154548017263	-0.02156780547914936	-0.007152235489102979	-0.000646116552163353
-0.004176495901382374	-0.02607419138683552	-0.006544575047879643	0.006999297584536439
-0.006703746809598947	-0.01576549584163851	-0.003260791833176545	0.005693136794138869
0.004927219069506696	0.01643919731867604	0.008817462888022137	-0.0006644506609360561
0.01108125496997014	0.05193261617994935	0.004134966207663501	-0.001824409368699516
0.02237724484415531	0.09686743190824215	0.002376295998475399	-0.004343953039697535
0.02546918585414829	0.09082865847879593	0.00164542997447631	-0.00349360138722995
0.006464484161555577	0.03553203245021671	-0.004419323858537099	-0.005574640768498991
0.006434039092726709	0.01356516702744404	-0.03043924746687589	-0.008967543102067242
-0.001004348955060147	-0.02001309214785458	-0.01853520252479356	-0.02606959904868698
-0.009496752859134492	-0.005902172650838726	-0.0140588847834234	-0.02597463580403711
-0.008902316358509924	-0.004341558606005482	-0.006440620135633884	-0.001937181193679673
-0.006633399931087428	0.006881070576668102	0.007210424548414198	0.01183355700617606
-0.002991317534792439	-0.01648167192285251	-0.0006319032249787755	0.008922094016899454
0.002875143927306341	4.957924366321559e-05	-0.01864175127148948	-0.01579039801675119
0.01023529291524157	0.05007373849847608	-0.00188631391804882	6.745390130852378e-06
0.007279124406360466	0.04973643029132174	0.006593438658934856	3.848363403915556e-06
-0.002425074544395788	0.03346346483352471	-0.00587171693464951	0.008499143036886677
-0.00141640636191414	0.01214808772682958	0.01307862345736075	0.01142025810618008
0.0004126123568284729	-0.02701502434889413	0.02842101887933369	0.01111190182977068
-0.005854932027505238	-0.04663437714365459	0.01924127483400315	0.005945042897828199
-0.01143290647577855	-0.07002413028772686	-0.00261551092866373	0.01387336317845869
-0.01329224052100756	-0.06224732609123822	-0.03543833326297642	0.006755002337921818
-0.01820241718584027	-0.01628977465777426	-0.05674490238995798	0.003239738110075576
-0.005506352179941176	0.02619541838685274	-0.01327039195260348	0.005138445934208747
-0.003907813460089633	0.007744690507645449	0.01595976328016625	0.01001946940835653
-0.002727970767352813	-0.01435259381245587	0.01477292318846802	0.004163691948386581
-0.006743519369526966	-0.004970466660704287	0.02531057035923845	0.01195180646232591
-0.007424655266088961	0.003122236316817838	0.009428078754923774	0.008957804655404099
-0.02805437667297889	0.02174313074130046	-0.005648415962660673	0.003549472995924059
-0.008565429234898831	0.01439823555719505	-0.01844180030812059	0.00311808909663061
0.007538079220441366	0.009058831821263096	-0.0006476296545446569	-0.01178695400411514
0.02466573840966149	0.0300060217998439	0.009921543109618361	-0.02715247389626734
0.0204853723703711	0.05326621577323672	-0.01171049554605105	0.001385622342269947
0.01003910252061652	0.07682391275725302	-0.002359934288132772	0.01016679498688963
0.002915119079548736	0.03380781843618589	-0.00245109426577122	0.008017890750373836
0.01568467388772274	0.01569810777792244	0.007920486855504644	0.002007603963546258
0.03404661609099458	0.009075944275618652	0.009732698434196763	-0.005746884223450818
0.02169559389693585	0.01621307935735644	0.02990350468338168	-0.0006615664892578555
0.01176079778696817	-0.03786664605795184	0.01921993794411501	-0.008408824604298454
0.009351016572758605	-0.07535845156584933	0.008440438714536459	-0.009489231579101516
0.01232662745750574	-0.04320498342112095	-0.002290826102719806	-0.007972219012487325
0.009352474626724385	-0.01674900127977329	-0.02469299009515478	-0.005960965578889552
0.003903396600472021	0.008875971318194016	-0.02946139178667878	0.002345220270310315
-0.0006053055073793744	0.01262594939150767	-0.02277820795341367	0.00875840934567121
-0.01108114089002259	-0.008980763527531212	-0.0212315263067533	0.007896551817669916
-0.01117642247603639	0.03894656704231701	-0.01736716872721631	-0.00403250254764352
-0.02483254414269223	0.08467010923197332	-0.008171952014816105	-0.01552744081507965
-0.03307968705240276	0.04102901617186024	0.01284662166178289	-0.01722043725435675
-0.01434509365433987	0.01128428413096288	0.0179064740227367	-0.01789557217638369
-0.001546250601860479	0.02324680079420982	0.02510910989757471	-0.02218431662735766
0.02477096843367435	0.0139543382771781	0.0028194454629602	-0.02366698460427942
0.02602092410291813	-0.008499691257903803	0.01204228704097568	-0.01678185054787957
0.01663678549912996	-0.02106538000510159	0.03959979937019761	-0.005240062827932096
0.02536858501863693	-0.02054719823769304	0.04866331849316001	0.009705644444102187
0.02081710472364645	0.007843314901161066	0.03343649410983371	0.003661445175218428
0.01209345792123132	0.007170823142573848	0.02921812749920248	0.01845400179517636
0.01130102343743263	-0.0009735405345911583	0.004380285734235498	0.01188105840912064
0.008560376095397542	0.01331327433182314	-0.02755169217062433	0.002162116885867589
0.0008655561436581684	-0.01132263821427045	-0.03287248886376258	-0.000942122501152945
-0.01603836153374768	-0.02402228878535352	-0.02059163139813926	0.002779018306708979
-0.02072300784084418	0.00694041168693682	-0.003866020803111962	0.004329252422355719
-0.01022035111674763	0.02697463901022222	0.02216790439873222	-0.003684805746331352
-0.01203885460501013	0.02956509206871436	0.03127699797642677	0.004619413606432893
-0.006430427276248381	0.003779388869093222	0.02364533559676335	0.003176284786184502
0.0087122552794997	0.001579052241082914	-0.0006648557316441715	-0.002996470065755368
0.01955135245465088	0.02616074694268788	-0.01040736666111493	-0.00671510302763288
0.01152453437456528	0.002011475181645712	-0.01079934510019341	-0.005875267088582688
-0.005709056125797354	-0.08214696244213382	-0.01651612934383541	-0.00607313336173985
-0.03227302888702514	-0.09154278047612822	-0.01284417173725935	0.0001732918790923208
-0.04583354832884342	-0.06219214494553274	-0.002518534878874797	0.008856999346232066
-0.0346776630199017	-0.003899628549189098	0.01712828801155007	0.02632219217340926
-0.003506750991238727	0.01430932275959015	-0.005055058343586268	0.01955131335991051
0.00292676340389585	0.02190871895273896	-0.01294250593702023	0.00127932084614466
-0.022197990865246	0.02423586074729059	0.01686286084397589	0.009979249449684969
-0.01557435304870701	-0.01011169262264306	0.03714197616973967	0.02364304438290152
-0.01294424763082769	-0.02987058281957108	0.02500041474730561	0.01770611779605457
-0.01821194751100453	-0.03336733718436152	0.009888221395992344	0.002274416436456801
-0.02638112640423157	-0.04276794146215591	-0.0039749008963674	-0.00756377223549456
-0.01589453705660888	-0.03499599406619157	-0.005076238478552628	-0.001646139847785361
-0.003848125573293191	-0.01934374630950898	-0.02765372590992061	-0.003005636864567009
-0.002861282949812799	-0.03593018980214135	-0.03020746673586763	0.002092774478358782
0.007084134920586022	-0.03699882374072935	-0.03738706559007139	0.001377601737905219
0.001773428292450575	-0.02097151502377056	-0.03310388262733785	-0.0002991509937186011
0.009928295233134215	-0.001943619282270243	-0.01681405877733163	-0.01107316943693504
-0.005514520234209132	0.0323650207377526	-0.005952105588889021	-0.01193646760152531
-0.02069668350175236	0.05163380583935741	0.001859219363371083	0.001415312239135228
-0.007669383891046611	0.04613756820665603	0.002598346528942127	0.01348621198452044
0.01828425054053638	0.04201437038841292	-0.01604815794045211	0.005090601172017871
0.03409854410812811	0.02134743763802703	-0.01535170467041337	-0.01359614593892277
0.02533260397820496	0.04191114594423896	-0.009625051296351368	-0.001357008855931198
0.003954714423967567	-0.00706852589380971	-0.003608073016014222	0.02047343561107163
0.003889153870307277	-0.06597747687635384	-0.006761520191150427	0.02010672048953443
0.01210141339361952	-0.0832478077305506	0.007020823664213529	0.0124731749754959
0.02820349259645622	-0.03939383196226633	0.0004872558202598083	-0.007795882875009156
0.0286432863664845	-0.000960056878567366	-0.01549859612491487	-0.02020564466320552
0.02156898933786936	0.005360541305830489	0.005710491859492754	-0.02276182570638827
0.02794714539208551	0.004345777235246972	0.008988421352810701	-0.01676615150497802
0.03041193306177652	-0.03469007525907493	-0.01007416592857219	-0.01857559477692875
0.01414145239186802	-0.0358575620899251	0.003571928010373432	-0.009072715864130818
0.007050132544566026	-0.02500730644547798	0.00688789948142826	-0.002303665542812477
0.001190908245178732	0.001918105140081271	0.01252868783957989	0.002509694031212757
-0.0009430690156029475	0.04214627596900241	0.001999663644271192	-0.008871897947759808
0.005555493436133331	0.08870349984143185	-0.007221798418328988	-0.009129737752236114
-0.004299223304114572	0.1307142781953779	-0.01176735129546859	-0.009439800146744481
-0.008556507599051624	0.1109215970702843	-0.01776043499387184	-0.006889361334239629
0.001367166553686095	0.07861573965562484	-0.01409165140161141	-0.009186626957840834
0.007399669317650463	0.1103124961217906	0.008615002111318038	-0.0001267973450819129
-0.008353296839179103	0.08703139061241137	0.04195272589710301	0.01419113224135844
-0.01516045021564624	0.03714854228308938	0.0474663927610449	0.03726434478302901
-0.009769571127878216	-0.02642986888308002	0.03518186871269127	0.02923879057277277
-0.02112480229880205	-0.0559498225739271	-0.01067464830769371	-0.01588178809165225
-0.009985270166902515	-0.05421329992421821	-0.01336283311946031	0.01146990523483301
0.002098686725807965	-0.04334416416906937	-0.01759215060016638	-0.007087874972907299
0.001248690197368209	-0.01588411026758054	-0.004369011337415717	-0.00848556652826736
0.004639029660716124	-0.002634341347984405	0.0009339645512764336	-0.004872367979014572
0.02604495057636691	0.00580599949975369	-0.001026722070371401	-0.007794883362117755
0.01838766714991111	0.002397063241389025	-0.005156120575257069	-0.01289646719356161
-0.01848881893902759	0.002464082312848416	-0.001383428238491012	-0.002591781891962147
-0.01516055886513641	-0.02183761632554153	-0.01235575459592806	-0.0008129446979551565
-0.01124369057723792	-0.0501361561468081	-0.04031960713398406	-0.01748735659930681
-0.01806762959389759	-0.05250065083398931	-0.02550323414620686	-0.006918541863704357
-0.005010357818908493	-0.03550470501721939	0.008172067705209691	-0.00976198126456008
0.01039081928058297	-0.03397134941763857	0.005277639776995574	0.0004500866555978984
0.02479944953397586	-0.04640791572405006	-0.0004809101396692794	0.008713857388328044
-0.008742066217031389	-0.04705721755401282	0.01193210805206106	0.01488927541801627
-0.01435705404014603	-0.03221209419830035	0.02385705105218235	0.004374843199587762
0.003165982704915349	-0.006186947949325537	0.02822926764068359	-0.01088112474347833
0.01695686748895799	-0.002528950370443513	0.02470071035005602	-0.01167242924263498
0.02140171138779158	-0.0089523006838646	0.005568638072467293	0.02101493687182189
0.005436514969872325	-0.01422844908993077	-0.000195801449270696	0.02020560776422354
-0.02104668831291386	-0.0202474186846612	-0.00266628354968582	0.01276119547648615
-0.02782048498270371	-0.01096075556512958	0.006286087169783156	0.01611410538350132
-0.02391157676186301	-0.02600068244707212	0.02701608143862376	0.005197182313724518
-0.01043985766858889	-0.01564209028361374	0.02220240127722234	-0.007433326893695964
0.002889977831177098	-0.005335144140821067	0.01229135619877516	-0.0005579851069022611
0.001799621552024732	-0.001354612990430802	0.02029147130272373	0.00353787798813284
-0.01717462703636155	-0.007996650155900148	0.027857855123744	0.01650297465782549
-0.03375041358657899	-0.03815869953618392	0.01479278679165356	0.01591306569890886
-0.01076727727614745	0.04069293594341538	-0.007373751847036066	0.006970629012386524
-0.002788126639109932	0.05242590010057032	0.003867756715757171	0.001082206477931407
-0.003040702147783196	0.07832413958245968	0.004488472790440663	0.01228584202225433
-0.01037526178433542	0.08772316062566216	-0.03161742407452127	0.005095379277592933
-0.02286655741568475	0.05243233549249932	-0.05183726796725099	-0.007436098920181782
-0.02986228835317513	0.03714671644071723	-0.04795911892855651	-0.0112428059147416
-0.01019779433131119	0.04167595940410906	-0.02504568283943394	-0.003686681395522352
0.00850756881475437	0.038187940550247	-0.02474397637090681	-0.002772039717132268
0.004253543497394412	0.01760111695355101	-0.01935663740313798	-0.004743533062006426
0.01749859097243183	-0.03274516065687386	-0.006374170217931463	-0.01238128126174628
0.02465930346251231	-0.01837589060835631	-0.003152062618854766	-0.00496181124533064
0.02213156592681798	0.006148292240376769	-6.413597461208309e-05	0.006724083486841191
0.005375553211209076	-0.02733161925973729	0.004914798743192756	0.005248583069907086
0.001300507842805282	-0.02472042411955228	-0.0003644778133140242	0.003490698613157011
0.002734927260701968	-0.02546380124599217	0.003574058581606016	-0.003111280977595673
0.01542995110794389	-0.009761836536191148	0.005871777876742738	0.002971170404635613
0.01206584349610235	0.004028027942624681	0.00820601498914976	0.001920859396063529
0.006401885955684252	-0.06604554827194628	0.02495613324167481	0.000917085892366867
0.00905065858348956	-0.1065020800490908	0.0204310854740711	-0.01310342055931826
0.007516630438701474	-0.1006117461956396	0.006733026998159301	-0.009061928286838933
0.006441509648494447	-0.07822127968826208	-0.005460068027688352	-0.007396338445922943
-0.0008484710690730218	-0.05449280684171096	-0.01485431416762207	0.006306849704151487
-0.01651606270092303	-0.0244582120255093	-0.006037399431823084	0.00193318530301604
0.005328058582276407	0.03330847188221706	-0.005905391300946431	-0.01044212832994797
0.004832301161066657	0.07724498374225208	-0.0002832918072207681	-0.01257794285431034
-0.01737853798546695	0.1005847569883259	-0.004474188475081659	-0.0108156987750543
-0.005910738662133213	0.1031012716652614	0.02073346988556333	0.003292499291124071
-0.0007203680456056767	0.08834738360878248	0.01828906918480166	0.005476595085887383
-0.003767968209725787	0.04267633770295055	0.01485257808617923	0.003307736546192874
-0.01048313765675368	0.01781336729664238	0.02285854328091991	0.01276380721902638
-0.003644675588318723	0.00520701879793173	0.01971374034778374	0.007912827835959479
-0.002355641308178263	0.02283261196167505	0.006755594652531603	-0.02308418486912486
-0.001200672226732547	0.02406083521223699	0.007028261748235114	-0.02049290704768017
0.0009255204257665186	0.003983598410869359	0.004187788514483527	-0.009220493535780467
0.01376912809638255	-0.002264509385993307	-0.004585725283405916	-0.01417756166686952
0.01819193942352231	0.006253880459859818	-0.01775098940675371	-0.02289160221965022
0.0008026482279078461	-0.008575248809130173	-0.004059668242235697	-0.008959527133336939
-0.00195530788650285	-0.05053795385939153	-0.01351173703879971	-0.0001813885867116639
0.002450437192608931	-0.07201156259836079	-0.0217235358907323	0.002036685001518978
0.009498047217030597	-0.05475844518101081	-0.0194559801865346	0.002453945190949328
0.01513193867729002	-0.03593373013527259	-0.001989268243164979	0.004361056032192751
0.01496690745774457	0.01098231853058159	-0.005778915356247524	0.0006099070291869786
0.004606385351188346	0.03177570223666333	-0.004713365708340959	-0.002908229909120453
0.006015054416321439	0.02956382445291225	-0.004572629968151346	-0.01415570851901167
0.01675012373049003	0.01045998199512738	-0.01435256104345296	-0.009141584192491435
0.009422717880305466	-0.05208427726814664	0.0004412085255086756	0.01829568213068235
-0.0007214323424349473	-0.045355398059891	0.006935991028289592	0.02842240832452816
0.009030990932104835	0.01995446348048443	0.006708043787404222	0.01970265528218229
0.005297434727631523	0.04350307178200091	0.003628011919976508	0.007759879026973711
0.0009043667301723689	0.03979835216723926	0.008419439438848311	0.01605400111256444
0.01486074336351179	0.04407709378168248	0.002633464734356149	0.02095825008086623
0.02104783979933937	0.02390212241066759	-0.01716426479329937	0.002993322710944063
-0.01131714281411805	0.00441812937662302	-0.01148471746766931	-0.01291760715249632
-0.03612008154121364	-0.001320657726556821	0.003120001702405494	-0.005696365826731725
-0.01404383695553639	-0.02789763121360744	-0.01193675951431512	0.0005142266238961485
0.007308791042944096	-0.04211308070761265	0.003177622702431433	0.01193950884800469
0.01578564464568963	-0.05513978076486554	0.01319816712681253	0.01508877998864294
-0.004439237565643061	-0.03122583195434214	0.01716606598825732	0.008019865461565884
-0.01298922773791906	-0.0186184734087953	0.005241975063868582	-0.01442310778539167
-0.0221132754026482	-0.001726796602947258	-0.001973198795918369	-0.01045507232765628
-0.008203835662429281	0.02072466163343666	-0.0001640400311942495	-0.006226271775814056
-0.01725739322193515	0.01960878599771815	-0.008085323809857724	-0.008798500789015796
-0.03468711582060222	-0.001947326188603649	-0.004088851566005317	-0.007428107741807221
-0.01399474203575077	-0.009675121222200662	-0.003596376309610658	-0.005893796493860683
-0.006092396498051872	-0.04787423669386966	-0.006327119236599156	-0.002900245026784992
-0.004313370224129262	-0.05253683928493082	-0.004820144668958751	-0.002460988014021487
5.356698757328439e-05	-0.03752360077551629	0.00710335346118519	-0.001128099565965987
0.009259781759760107	0.01720119892617111	0.001900340828217958	-0.00544052555466262
0.004121813634563476	0.06471657036213725	0.01727622467633766	0.007993493746666535
-0.009729732246624788	0.09706517435653249	0.02300333400237767	0.009360906828223275
-0.004046441690896349	0.08218620985599603	0.02189890693522991	0.004958381821939201
0.008835177736928062	0.1060168458376468	0.0007829591937283712	-0.005866963945812398
-0.006792148265499338	0.06348138791456777	0.000954636515863611	-0.01252269692258906
0.0001032990904999171	0.0001410413803831568	-0.009427305444186712	0.004821662156892199
0.009968408144268612	-0.04557698598863286	-0.009763985496288154	0.001678678127709788
0.003304708906985615	-0.06440755077307636	-0.001893849576487117	0.02885253291143666
-0.0002688607448042341	-0.03385481786964729	0.009663685020222405	0.01448636815538662
-0.003474309141353027	0.0165061050709282	0.0008680112919867348	0.004811816549799174
-0.001563258218253588	-0.0158761464880922	-0.000760779929206147	0.01386853116300531
-0.003692270889416549	-0.02978265816802452	0.004062371169352659	0.01549052671240036
0.004557253250815945	-0.02414108696363387	-0.007892319304178755	0.007844225658587438
0.02474025618738747	0.005217114334776983	-0.02647958175228692	-0.01029004146786119
0.02514339079293011	0.03539496521088527	-0.03179465946926189	-0.00337347840288378
0.003791295280021217	0.06041816305203686	-0.01873926274333916	0.004687418289166305
-0.004710722218997901	0.05741763259086061	-0.01376974252578588	0.003984749202011327
0.005466922361352054	0.04769196793302863	-0.003128847124695014	-0.008581793007797187
0.01354335793842628	0.01623199868099621	0.000389655894213197	0.0008445096576933865
0.004285673387699708	-0.03072239983101379	0.01918989757578497	0.01061818211353844
-0.001410252727608329	-0.06936567106177326	0.02218049489593546	-0.004672582097435658
0.0119865943648957	-0.0809653653393753	0.01058353728852043	-0.022166017897621
0.003956049961722297	-0.1262360797781912	0.009616896877276085	-0.01288734963719785
-0.002152191391012802	-0.1100492423539476	0.009094460889700352	-0.004209942860454794
0.002306340287915724	-0.05846007041511245	-0.009635706836523771	0.003761717024689506
0.001013983165744763	-0.007442397337339121	-0.01679813825471986	-0.00209945698930444
0.007038005528018259	0.04035677489194948	-0.00990156075361928	-0.008815167925468433
0.004223526289335916	0.03986565474448432	0.00442969702483558	-0.01449972906609774
-0.002649606107854953	0.01932038356782217	-0.0001408431233027753	-0.0003479243721477191
-0.01008106309283809	0.001331036921096874	-0.007557584410353692	0.001707145158527606
-0.007999001666401351	0.003103071630039919	-0.002524896293790594	-0.004654153583883496
-0.002693122725745788	0.02577665169111028	-0.004906879410996341	-0.0009263045053080317
-0.02051271854959858	0.03194040614465748	0.0005309855324982039	0.003724701830107949
-0.02798614155755859	0.01365845527625859	0.0123914953990823	-0.002562702812846485
-0.01109199546093285	0.01375737039072943	0.04245524261504811	0.01042417087774406
0.009826747429771705	-0.01181264155025488	0.01335228061627717	-0.0003738782571163063
-0.005250244163396415	-0.04637234116590695	-0.01189229656404142	-0.01357436969954814
-0.01546372646893311	-0.04976360458047757	-0.01187055635694113	-0.01106324543416348
0.007755351639928464	-0.02831764271583357	-0.007088465797777773	-0.00600840137903633
0.01210070147595468	0.0002918171277153953	-0.0009487782948777399	-0.003117893887233871
0.0194787169214676	0.04502899873232412	0.001241843643442423	0.005010562288402038
0.003837692302167487	0.01650491351375217	0.004884036930195163	0.004771218984517551
0.002240661938264359	-0.0002120012030347446	-0.003392600641491471	0.005468451708039378
0.001047399530281407	0.0179331387753809	-0.01902345903645985	0.001545339107959294
-0.01084051511707835	0.04387446347909157	-0.006825411461362415	-0.005032862590622332
-0.01291370071503208	0.06014836912401807	-0.002175534535188863	0.002353951725082738
0.01445661889491251	0.06021306180738201	0.01159980920760643	-0.00614978774150737
0.0005359190188392916	0.04830957355799129	0.006565418829389484	-0.009008630103329559
0.002366771263654693	0.03275604780695211	0.003467224997649631	-0.003777151992642226
0.00748283425858069	-0.003818437528312854	0.009590427217615787	-0.001657748868656355
-0.001965357161812415	-0.03056400537934919	0.01578416421842984	0.005499555025668789
-0.007064429955394767	-0.04203453166908162	0.00516622978683959	-0.002643987613828796
-0.005155408945938144	-0.04622329950484873	-0.01573936524001199	0.00235347941766201
0.001750692848963396	-0.03970751431546451	0.002937359739393933	0.0001062121045609023
0.008866778595310593	-0.002208012073018583	0.01187549916402091	0.008569323119689892
0.0004579931602526936	0.004761706560556811	0.006723606568832274	0.009976691222078633
0.005393715449546996	0.05641336948376712	0.004179732459983385	0.004920204630186258
-0.0008327051631034501	0.09225864423879478	-0.008146303619680276	0.01402546850827098
-0.01635426718828413	0.1055327403761935	-0.03170454894197829	-0.001761559850735767
-0.02223730049589754	0.07281318789938079	-0.03267278508088917	-0.002070417403924818
-0.02430641313965441	0.0316434459528234	-0.03432106876636832	0.01054619474120904
-0.01875029057575035	-0.01679237313389655	0.01313982945074196	-0.009878504662891864
-0.0108773255515492	-0.04102561251473	0.04197783862642823	-0.01779479273753193
0.001010809004876973	-0.08221344169237836	0.02261575155663255	-0.01087662312114815
0.004235560098387405	-0.08908807004338293	0.001180383233130711	-0.0057504227399766
0.003098117448110966	-0.09614401311965738	0.00714132928490006	-9.396801393840039e-05
-0.00030248992158416	-0.08716787382467174	-0.00206321215237332	0.01386786829900962
0.0008525347496271059	-0.05664024826092631	-0.01332903078611172	0.02458740659681489
0.009750973004087523	-0.02733702418695285	-0.0006820395131648775	0.02749305170762101
0.01522745186937287	-0.06593250087053966	0.001287394437391021	0.01449982890990504
0.01458841048784884	-0.08642755439319415	0.001391962722582048	0.01080397650107407
0.01685133954488308	-0.06304719958267282	0.01113662281316784	-0.001183228036675489
0.02069598903470937	-0.02341157565566644	0.0192223427066792	0.001535912433528614
-0.01295220740400164	-0.02154925387531926	0.01805851688520063	-0.01031928249976252
-0.0204397980585284	0.01595462458796984	0.008067853913650135	-0.01787880470483305
-0.01375873524528076	0.06351332268501036	-0.003423188716757755	-0.02996325471992946
0.005262653695676768	0.1118582544880147	-0.008213402157976136	-0.02210814779854024
0.004685650839385034	0.1178305544669924	-0.003670577252698197	-0.01345141843746292
0.0174617243011962	0.07468183928074111	0.005367064297625258	0.0005281875445740266
0.01845422728542813	0.02788882146403582	0.01246877103667496	0.02238654169308364
0.01531855810422772	0.01353329742462932	0.03268087928510851	0.03348014121272051
0.02754969936577746	-0.03523514581153222	0.02659809999974732	0.006615774414349441
0.02838439393474847	-0.02550081391318151	0.001566560253364766	0.004833094774341145
0.04024926735796065	-0.008368419599449086	-0.0121337024907056	-0.008561695402157414
0.02039799465752533	0.0123862525885538	-0.01393027778115841	-0.03750819774693605
0.009978650928912569	0.03197115081839672	-0.01872778965818173	-0.0377097518282972
-0.001000903743880665	-0.004671179818672441	-0.01524828644465117	-0.01612830816568578
-0.01103009689345453	-0.001310531313439846	-0.01607349797698319	-0.008004167866142275
-0.01918535269275114	0.01071203443334292	-0.01906040253115763	-0.01904960866750597
-0.07521757001925009	0.01870751316582088	-0.007447525669569102	0.008075355054547395
-0.05648064198773168	0.01347885464307325	0.01409923978242584	0.02317873073689243
-0.03428604111292369	0.02546274059068326	0.01953152853743407	0.01590167861259865
-0.01757039265449798	0.004858021967770693	0.01764657182247415	0.005984566877697517
0.005792939099276116	-0.001954140446287041	0.02006166155526229	0.003741669847885996
-0.004164291534322834	0.001941782302733076	-0.002155866512855205	0.007696694410664168
-0.01297244573043857	0.00344124551451731	-0.01284211688295723	0.0087845143002589
-0.0157271605965552	-0.01378243167734816	-0.005833354286190017	-0.00294094854911566
-0.01318166032417163	-0.005596066233958855	-0.01129301718124708	-0.002091034894629316
-0.007758273761724405	-0.008192582765344953	-0.001700577212628132	0.009384428951378062
0.02527889237254283	-0.05638156065013342	-0.001895490518797726	0.02153839241931138
0.02695054372568614	-0.0632627481316437	-0.020334221259949	0.02959369129169166
0.02531475537526295	-0.04585046395083471	-0.01315003294456981	0.02414318144716303
0.01773773220530598	-0.02528294750237997	0.002842977746858761	-0.003623680499652734
-0.02771236488642592	-0.02884105874408672	-0.002936747367740206	-0.006894314508960609
-0.02762757269833772	-0.006997378286314952	-0.006269818323629857	-0.01956910471377106
-0.01293929939866941	-0.01683880683039574	0.0003863995859541772	-0.01057641282719318
0.01444219512005231	-0.007353133673155104	0.005923235935681177	0.004443437825642434
0.02285293471982974	0.02890236561901706	-0.0136982327880801	-0.008816644595790577
0.02644133243986321	0.0574391763503945	-0.02292391743096641	-0.01848941284871234
0.02229916362276457	0.04222929542309907	-0.02045131372018311	-0.00500861573945431
0.01862598811180326	0.05815022375601699	-0.01504710308951853	0.001415323253032547
0.01150655270044286	0.08235127234844689	-0.03236162887597585	0.006717782201476676
0.003831606723329358	0.07787529230448061	0.003757895738076352	-0.005145360213878564
0.0002021609328070823	0.06965971397963711	0.01032324749839297	-0.007447960972614695
-0.004261903473651838	-0.04919712996454143	-0.0006862613234616524	-0.007956163662506377
-0.004345206668200566	-0.03848375008326391	0.007100936165640694	-0.003412424622128212
0.01201208217479666	-0.06297844794189408	0.007427765845858363	0.0005913201826428262
-0.007440345313013031	-0.06227172436839219	0.007177250906216929	0.003824201336920291
-0.009807131784250548	-0.0157109744219618	-0.004578917336834004	0.002346120519493287
-0.0001121442272804486	0.05101257559245132	-0.001759509219899153	0.004078785719582218
0.01578679109942783	0.06985998124509052	-0.007230574032587887	0.0116783909610382
0.007694691339517091	0.04314824826191559	-0.02331794468982971	0.01450539877894611
-0.0202071733888251	0.02166066324144415	-0.01850699197927086	0.008818984867871428
-0.03118281736124909	0.001603764618139002	-0.005443915473280625	0.009113837995256521
-0.02955002672898435	-0.0173502669537014	0.0159144826827189	-0.001357198653298872
-0.001888943738993002	-0.00295364913991647	0.01630893566406294	-0.006702025095141066
-0.002251928392897284	-0.02672737869807132	0.002056975918575566	-0.01488567261688466
-0.002952634489181251	-0.03376296498749459	6.52032268884856e-05	-0.0163619354598697
-0.0002966931068842286	-0.02623054299743486	5.469320444371802e-05	-0.002926357099013589
0.0007572734253346119	-0.04523298620023836	0.006705159196980618	-0.01429820765021894
0.0001127105835633892	-0.04321336479172184	0.00584003871079709	-0.01604143828973138
-0.001103430688824071	-0.03344774898361428	-0.001932863554148388	-0.01165484700966838
-0.001811926037121154	-0.03539469891246368	0.01139199784524409	0.001326000294204476
0.01260559176286058	-0.02218681577019456	0.00771402318737477	0.005126165274303852
0.02571732995009951	0.001773405947820072	-0.01541730265813046	0.01018418676727461
0.04290015671249607	0.04048795009057805	-0.02386472523689287	0.01493167906220888
0.02682259356429474	0.04588367574522608	-0.01630026147159935	0.01838193403459642
0.007726644622419268	0.06478077996903514	0.01551841026683801	0.02732215909245644
-0.004256069496631173	0.07227169044332317	0.01507336599763442	0.003866595754121421
-0.009675102984382195	0.0736557021385215	0.01047868957131263	-0.00946397681686253
0.001102042497113126	0.05550793131550413	-0.0009879261641249657	-0.01311298737156862
-0.009302474014177045	-0.01319270743084554	0.008244961230006899	-0.008380865059091172
0.003818752205568847	-0.04478968336113006	0.01602703527563999	-0.005338186526722789
0.02466313228795888	-0.03901166195851126	0.001320281144347142	0.003554672321963358
0.0124599305453148	-0.03334658073475211	0.0104847002789528	-0.007525234960148858
-0.02862279901089345	-0.08613917940477613	0.01910870570845828	0.000176836654064179
-0.007047343453812435	-0.04816839701234746	0.01336399680683551	0.01479942423310595
0.006091905289721745	-0.02274607124951607	0.00464360118405834	0.006039329508043043
-0.001653766919089347	-0.04237531041545429	0.01002415080523242	-0.01180870861998849
0.005575215428181505	-0.03951915955405826	0.01583742779108817	0.002657332597163933
0.006886915795908197	-0.006790115010820794	-0.014507446238089	0.01357523956968841
-0.007231299317240536	-0.01766397082444895	-0.004538510071671628	0.009347111802574911
-0.00783542337486548	-0.0330688004734625	0.02504682020031873	-0.005174400221797609
0.005427285698432699	-0.02656445778570005	0.01062834434222841	0.001565110964644984
-0.00301175362927569	0.04106348719058017	0.006970908311308643	-0.003041552441308451
-0.00189094794095094	0.03657952704409622	-0.01301063577287594	-0.005550361617226769
-0.0003546854529310308	0.05864956517669094	-0.02022807091495141	0.005952345204500777
-0.004390013254610182	0.03833987976337773	-0.0200679507038795	0.0061015518234544
-0.0004472247095346894	0.008780903590141654	-0.01986464916670345	0.008778085551708982
0.001972349242433494	0.01207377687460923	0.003414729712114419	0.003566380953553493
-0.01482289335100715	0.02323143598949447	0.0125539966105449	0.007484044848229244
-0.003185110593336554	0.02580028276142578	0.01119029938486891	-0.0010759367006287
-0.007988596044833178	0.009573456666951132	0.01116462936132334	-0.008977754960536821
-0.01592623351602775	-0.03950270164179022	0.006465815005593996	0.001683053705870386
-0.01879488057173117	-0.0456483092126738	-0.006202253240677275	-0.003607086650738345
-0.01481935712790382	-0.04134059567054091	-0.01202462980682048	-0.006528738495443554
0.0008621804677134107	-0.01600940214366004	-0.001372221692199725	0.003472603328961802
0.02023811718234138	-0.004464106595064609	0.004915977265616185	0.007657545433744773
0.008446540925817876	0.02470042785610206	0.01236806788258141	0.0009692536894498882
0.008649932494345073	0.04050563924944348	0.004752231841772068	-0.009517069307445454
-0.01719495127965186	0.01294293170651615	0.00245382348851869	-0.01255340658099312
-0.0398321776356575	0.02963719327667934	0.02222415611546582	-0.003567380291960288
-0.03417712610421361	0.02185879811939875	0.01648350662704858	-0.0009843199378290343
-0.01007254168168495	-0.01811688110041366	-0.005531705041287712	-0.002563173424275993
-0.01958268023809468	-0.004962747838740644	-0.001067199942540966	-0.00183895052834332
-0.04161391281051849	0.02594365598050874	-0.004318272377123195	-0.002341130921923541
-0.04668217980400722	0.02255422528942249	-0.003354492666719322	-0.0001284424306631755
-0.01564351887841616	0.0300937582230103	-0.007111367819818425	-0.0138183861936034
-0.005520691041741665	0.04029165568386311	-0.009194556991414105	-0.004596661600748155
0.005080859947536664	0.01893758292031021	-0.01060072688609382	0.003120756721205984
0.01347116279851174	-0.04030293784132967	-0.01003538541618744	0.004444510878721725
0.01775699228063427	-0.01498811936006844	-0.01144306501063371	-0.004991935710457738
0.01286530023333557	0.03638347325349845	-0.007561403257434262	-0.01342959031794453
0.02873713382026319	0.0767614833363857	-0.006074256688867734	-0.009855785402879716
0.03480091456622352	0.05667859417307411	0.001429153123878204	-0.003342493361575381
0.01947932418152956	0.01545289165005174	-0.002947245009742465	0.007150734302336952
0.01521293808295254	0.01333921098824959	0.00734166133323011	0.01288638656097562
0.0129746614536288	0.0229501215417652	-0.005545257631525273	-0.01848217485628144
-0.003307653492698826	-0.02064146360424551	-0.005176574193001209	-0.02672893476881961
-0.007511485560570842	-0.06112872318131841	0.002228417616982486	-0.0172084565594561
0.02068243666961953	-0.0843639391155501	0.01224981834286403	-0.004393587609670659
0.01015695994303258	-0.05241384223665625	0.007187968235217281	0.01332254288085041
0.003813384578992747	-0.03445751280582	0.01157525400946989	0.01544465665232037
0.006300548860204739	-0.01545147191953207	0.01552746048268036	0.02141933540542095
0.007229313571133914	-0.01021864389726693	-0.0001222067535491689	0.0005696728092873938
0.003751929431899725	-0.01639506293811532	-0.01185055811151284	-0.01873170150594849
0.008555359252661354	-0.01092692796012099	-0.009067512503990731	-0.004485028820718373
0.002449060079978714	0.001131888800225404	-0.01076768657616857	0.01669104609403388
0.00176007065671223	0.01021833769523284	0.003205710840402848	0.01352857600332591
0.003013699983448203	-0.007520291426872034	0.001718190922263342	0.01641990110912808
0.004770970057453649	-0.006323396936953863	-0.006229709590233594	0.01278042388804698
0.01839846838758264	0.0158502275351987	-0.01069206614777104	0.0005914412281853245
0.01189140314877025	0.0004877441464766154	-0.00722419325842135	0.02108719859162566
-0.002039048962209875	-0.09344250067899294	-0.01993377191458499	0.02584977695262798
-0.005794271427711935	-0.1519688826489747	-0.05427370120782377	-0.0004744124856521925
0.001581445869658268	-0.1643783845770475	-0.0008814754471829206	-0.03015394247947234
0.007629983799701501	-0.06455320780053452	0.01540789595237269	-0.02110390996795978
0.01196296450748468	0.009345760578799146	0.004709451376243506	-0.005408573219866738
0.01872574680063173	0.03367732639297989	0.003643681113205953	-0.001414854642744233
0.01236673234247116	0.09071406044885698	-0.0102206113218143	-0.006507333363297627
-0.01542395162017695	0.07331108741444826	-0.0001748300419476883	-0.005839657405429627
-0.00445230014470673	0.06696441251394958	0.007517415723461348	-0.004324420994212852
0.01373627197976789	0.1153157284472391	0.006449829961514667	-0.005344267978890141
0.01546203464692509	0.1610531802279275	0.005767610797346172	0.003999209342238763
-0.00989941230776892	0.07743645533434629	0.002817955495611099	0.015467962556532
-0.0113266383618994	0.02144654577588948	0.01934543310596703	0.009367727760361436
0.004890038960438736	0.001601360088711041	0.02240510574932331	-0.001696674948901966
0.008909265244216534	0.004229536877346022	0.01026380521107494	-0.003193206039027119
0.001956582768909579	-0.009406141158787729	0.02115925627100586	-0.00544389470296671
-0.004189898646464234	-0.0433566612778924	0.01569621957835591	0.008319982078666957
0.005631372351386436	-0.03280330932435181	-0.008041218529938761	0.01096319555098305
0.01298886784811372	-0.01893891789277291	0.001937466768094559	0.02347694592629209
-0.006459232935892896	-0.01147824498392685	-0.01832235488990958	0.008149032945961188
-0.01236636978517332	0.004992526341816795	-0.01280769491975559	-0.0039965865736015
-0.009787363726625635	0.02173996902295415	-0.0002914928510747879	-0.00630799359038816
-0.00650166653779311	0.03877955628838361	0.009261191465032785	0.0005214388665813679
-0.009527836086493871	0.01801308242620151	0.003511921426157744	-0.0001546917287763381
-0.005134955787620105	0.008885307647109654	-0.02479371923781631	-0.003953918794588515
-0.00280271743653263	0.003500534769089731	-0.01166636292819984	-0.001428137058802403
0.0005163062073821811	-0.01525900420596571	0.006671052037065238	0.01147670503876249
0.006790675329170973	-0.04330347889782051	0.03816054402916164	0.006782925100250588
0.007329125984984272	-0.06666378905992423	0.02978909391639462	0.003482778696788735
0.01916130169818066	-0.06980908296082623	0.01790073608536448	0.003268112259592459
0.02107806581911352	-0.07651131945424521	0.009401120243785794	0.004562814436049547
0.01210573959050659	-0.06962368102063941	-0.002156221288812451	0.005737608130237656
0.002574011816488493	-0.03771885307831705	0.004558197619362061	-0.005479109995692396
0.003137770171125777	0.02169954061182852	-0.003813404484519359	-0.01735303307595382
0.01302428952806552	0.04695297409487239	-0.003400459363077102	-0.01421561387785045
0.003382866489666942	0.02023474556143599	-0.01952801476095507	-0.00845277665440702
0.001648025398095657	0.0002660780766507539	-0.01626062511917549	-0.002941782558324493
-0.01954276802794553	-0.01179919209578504	-0.01344798493670713	0.003830162734041524
-0.05988756990571897	-0.0249044962534206	-0.01036242545870017	-0.005749370535560323
-0.05028183434275913	-0.06741873872816294	-0.003655844093741297	0.00391965606886868
-0.01132104930916995	-0.05791630059237124	0.00623858520883658	0.01075850183432054
-0.004306018407742951	-0.01158994636820585	0.003656230625632942	0.01491539100601005
-0.001817231622595468	0.03814476079407473	0.001733266524966729	0.01839900203222905
-0.004683450598443885	0.03685326204787255	-0.01790507460838628	-0.01087577400327298
0.01830055644516034	0.02336237833063328	-0.01401355927442029	-0.02342764767979419
0.03680913500647172	0.04492933161506937	-0.005447740187476646	-0.01514921088460641
0.01677127861409921	0.06061036193851042	0.008970629341053112	-0.01536567453378528
0.0008472365591806229	0.06114750236689617	0.003903814454586256	-0.003991178360845694
-0.004429626874412725	0.08984662451954942	0.00113859202752394	-0.000328688547852086
0.007318167658516559	0.08385406368300653	0.0007592563431699165	-0.009455404596662866
-0.006018237481323668	0.07155861904742256	-0.001725377673097239	-0.02641397353578308
-0.01086091074442221	0.02657615780760322	0.001680013285812522	-0.02423930408392532
-0.01218371341387884	-0.03270121202038631	0.003584254514522581	-0.02175729910305999
-0.02603676170419927	-0.04793607056230416	0.008703656059629436	-0.009006280787222329
-0.03444531474015398	-0.04042480213526971	0.009518954067347355	0.001675052249219518
-0.02114524638874733	-0.009656168091577419	-0.001979114501569328	0.007004237734361623
-0.01232208869015004	-0.00352563102328223	-0.007852842889458818	0.01023499910885293
-0.01573703701072862	-0.01002207168228306	-0.007315882180179061	0.0228264349196765
-0.01168710242788425	-0.01065516510655385	0.001141065165797131	0.03210512895102903
-0.00725228414801875	-0.01025532254614022	-0.004083126184720174	0.01616254772897147
-0.006074162283759858	-0.007522877207541889	-0.02087257230460497	-0.006331885041494522
0.008211947828719729	-0.005134728992888427	-0.02454458601288303	0.005859407202135566
0.008351596273858709	-0.01876844822218057	-0.02501716178277336	0.003205145974598545
0.007236537592277076	-0.04469455393736075	0.002536964353958835	-0.006340363619844774
0.01249124324088332	-0.06528628766760805	0.01017805686926288	-0.003096426948183767
0.007067396683953096	-0.05225824216318101	0.004537061671985507	-0.006673036150717648
0.001062332292970473	-0.02144098388221635	-0.01007001290327081	-0.003705985981104825
-0.004022478374899983	0.008469831751118095	-0.01112321407028576	0.001612370197961604
0.006712437764810886	0.008520866074045024	-0.009263336478031304	0.005562202756238907
0.009778974337156252	-0.02009862483369229	-0.005440601989537465	0.00242566018063613
0.006194851725755769	-0.03314747723841929	-0.006517401083671421	0.008046241339856926
0.001938533675648541	0.0193067873997837	-0.00641506131128422	0.005288809386469566
0.01130406454285934	0.07422975480530496	-0.003473010303319913	0.01093060039563854
-0.0007223205896503682	0.05508473666575948	-0.006689323372721044	0.008269119341777898
-0.02472692043294076	0.03812775492565444	0.003181344457711917	0.01390807468076949
-0.02121611602604206	0.04670609683848093	0.007373501814803103	0.00434769406047078
0.004408087758784359	0.02894150927156728	0.009459479207674723	0.004329745878510155
0.006143326901002576	0.01554675491000898	0.009677281817530725	0.01276332745144802
0.006718872787119711	-0.02159880057764062	0.01887997688511238	0.01101231777859618
0.007719694119662153	-0.02279504467093166	0.01622841757194558	0.0007802832874170772
0.008131742319850335	0.01114703721508086	0.0201997877014716	-0.01246394439709163
0.0151353987994224	0.01816084144015563	0.02331171330135499	-0.01044871610580697
0.0139450518948428	-0.004233922699540715	0.01139920804881819	-0.01620476740479039
0.01008892083794344	4.187304182679045e-05	0.02305940340380562	-0.008685491266557537
0.009778832615901869	-0.00205498296249599	-0.002189470678829832	0.009916642033992756
-0.004652224530948365	-0.0002725315342123323	-0.01843430108033976	0.01614131625935806
-0.009186836995953017	-0.003231667428476893	-0.01412256580045629	-0.01466697006442514
-0.00177404362145268	0.004595289575697779	-0.01191865445231503	-0.005782312536863801
-0.004772536424693013	-0.004699760160038917	-0.02719405398621764	0.002438166533991816
0.004244156762388458	0.001983945095900649	-0.0007319097865408407	0.003839246723206379
0.01998822597091555	-0.005645024573674044	0.0471033719148873	-0.000609820025439925
0.01654318630975283	-0.0190494547847415	0.03232958936097201	0.0004267175862032603
-0.002603019887007542	-0.02660513302183335	0.01992502641208804	-0.001319630537131454
-0.0006020106626692753	-0.03504913660719054	0.01239557303048534	0.00452378421480501
0.006598534041729345	-0.03829787878324475	0.01467242722425916	0.00119070902481561
0.004854524803830557	-0.01208248399934471	0.001891233677697857	-0.009260516233775764
0.00503311875946164	0.01039553520328744	0.0009499462756818199	-0.001652108763738945
-0.008960095401819395	0.007469326417529789	-0.01174331440287333	0.0009445055203338682
-0.02571458230081376	-0.03181217954583269	-0.001769050825203044	-0.01192302858744317
-0.04442506732957915	-0.0496011864069039	-0.003865557708702994	-0.01629914949473269
-0.04034505117686438	-0.006920335795047209	-0.00354578239423552	-0.01239421722274995
-0.01023748278749706	-0.01685482575417519	0.01342475439981401	0.0002888724152545299
-0.006945280846051083	0.00460267988668309	0.01759984477765982	0.01014307770775711
-0.003248029311971047	0.009186250013161016	0.01376781853491846	0.01012324430164226
-0.00850675793432034	0.03755620706842479	0.008864392787186318	0.003792725733584251
-0.005472852788321074	0.04148420925734417	-0.002913549976358856	-0.01339942966902549
0.009115295862794442	0.03243341225226305	-0.008977859110593808	-0.0025152250058213
0.01611466401675384	0.01706075624779299	-0.01049328498152694	0.002903594109732175
0.03831424136119851	0.0160699552936464	-0.01416599034205266	0.002363369973663018
0.03239690561807659	-0.003375083169565735	-0.01850654716508333	0.0002629021131797783
0.02680220785722881	-0.004494224743650943	-0.03689007029237574	-0.002275463008360475
0.03640737485159994	0.01874912484580216	-0.03881869057487991	-0.01069362599058718
0.007154669156258084	0.04249598286727654	-0.02501640224448353	-0.00880557979890235
-0.01361158538913812	0.01591604900715693	-0.001355970432050914	0.01022292054306598
-0.008491075980482753	-0.00219943460700541	0.002015864584446101	0.01131294144417317
0.002628690713876648	-0.01368513600040446	0.003181329019289185	0.008047710926823033
-0.04841188510765317	-0.01731476296959718	0.004854297855856196	-0.003678373126950377
-0.04291511638016198	-0.02383695899267315	0.01632680219931708	-0.004949032300971204
-0.01676840280579641	-0.06576084336746033	0.002319409976796585	0.0002618474997673244
-0.01163406048037421	-0.04661955299745525	-0.02290076129324525	-0.001056473791787129
0.01054333808434722	0.001180458799556893	-0.002406481397581357	-0.005784949367980055
0.00642738938619128	0.03599643989393946	-0.01223990641096757	-0.01076565575881307
0.01611663410317088	0.06150218058609317	0.005947010239522156	0.0001114456456216649
0.01262512050448759	0.07911747655444423	0.01090314512017621	0.003857981686778693
0.004791836396844432	0.08300530520746918	-0.005172278396924109	0.004410341719679504
0.002248777153327661	0.08238305222512048	-0.01417273084699577	-0.003159875210509337
0.01907331613548741	0.08483386559540608	0.005636019896984554	0.004003332173870843
0.01460323727839402	0.05940586986777967	0.01457030654527245	0.009373231431692896
0.01558094641240378	-0.005677717182657906	0.009330096899210051	0.004088879866564293
0.01287454331858003	-0.08486461252532296	-0.0005465779848913098	-0.010206924642838
0.0174927216732529	-0.1026120696167712	-0.007114119105361803	-0.005994911799776105
0.00683145777327605	-0.0882336454774835	-0.01729110955670539	0.002378124159133861
0.003309305521073239	-0.0721338145437191	-0.0236296292124236	-6.405816258728931e-05
-0.01274891849023931	-0.04801618249312542	-0.01862508744844988	0.009546658749892396
-0.01372861857900167	-0.04145354921405724	0.008724833872499584	0.006927618181404311
-0.02117738036948504	-0.007305026160325367	0.02422821493145744	0.0004711777315907844
-0.001970159023793573	-0.01456899517308592	0.01429042908662103	-0.01037881376637607
0.006559745537896703	-0.007910384218628302	-0.001967376041093081	-0.003057883383081735
-0.01197360120128172	-0.01880630492117491	-0.003398184422243061	0.001275062737443937
-0.005749935860168308	-0.0436563195069657	0.008988958514270024	-0.008454014400209398
8.922573383175845e-05	-0.04288862449441133	0.0201404399607061	-0.007537814155226447
0.01219184027122079	-0.01099789226913238	0.02807954131877235	0.006493330161508556
0.008856977789344949	-0.004721589359604116	0.01108924895190756	0.01172200822572588
0.01538401760488793	-0.0318095049782216	0.005996838816720238	0.01068067513701738
0.02647094382510356	-0.05470832275495138	0.001987675284420944	0.01529660588854096
0.02191901478202505	-0.04866011512121129	-0.009609365964150416	0.007158399935811454
0.01761513260027334	-0.0197126589464716	-0.004918176941403217	0.004320506372395323
0.01217338121351278	0.02631516255102757	-0.01537781642177477	0.002960742438576245
0.002543120941286042	0.05679170415637635	-0.009059208756078123	0.0133619038889196
0.003240482819680528	0.08481026496052416	0.008039756118389158	0.01444762434257479
-0.006980581018799843	0.06141722184546747	0.01955991140699124	0.0161782923929226
-0.01320955582144879	0.05734944486319638	0.008404698711724695	-0.0004075016500571867
-0.02273043869956576	0.1131837635498947	0.0004206697005339113	-0.0130936560935407
-0.02030735865850537	0.07202074004626169	-0.008609521901725394	-0.02107076609274804
-0.01162054681177564	0.0006109182982311379	-0.01093895796027832	-0.006562258264714609
-0.01555309872292789	-0.01377162916095775	0.0002219591931597347	-0.0003150025988183371
-0.02080369568730257	-0.02572572665683258	-0.01103661293067507	-0.001121111091366683
-0.01908915869621639	-0.01351805610242637	-0.01978860321669519	0.007014273480072965
-0.0277627061800781	-0.05352010933931329	-0.01520221508719445	0.006888138064820909
-0.02308860788146977	-0.05531054453418028	-0.0005081060970025243	-0.002938977752193229
-0.003727894196550193	0.00749489699911492	0.005085660018848521	-0.0146752459899005
-0.002811380463060291	0.04335114799398469	0.007600575500395321	-0.0075677335279032
0.002141027686225182	-0.00744900509588631	-0.006072566420946207	0.003944859709882767
0.006508519257522586	-0.08063367619530075	-0.01919310848533882	-9.454525756095284e-05
0.02112014990026186	-0.06147780386740441	0.007003040400944223	0.005832071563556548
0.01841348556455115	-0.03397353795865169	0.0146482240796471	-0.00951532253318723
0.007185807737161191	-0.0043013902470878	0.002752722273762887	-0.01403949877907413
-0.0105167561274126	0.01122818221898987	-0.003369697815850097	-0.01011558462197021
0.001779348483717024	0.049718811185899	-0.01000606238678889	-0.001532603367791411
-0.004589111113786791	0.09315394859619765	-0.004869258877594258	0.005145497713751772
-0.0006714669788127291	0.09334679351208999	-0.00391898700220009	-0.004956214057832082
-0.006018895003333457	0.04461964926514352	0.00766916837320408	-0.01022833689744961
-0.001440368213877779	-0.04517966538631151	0.0318267772413105	-0.01783769305823159
0.003368713717217183	-0.1048609187559455	0.02279515185858759	-0.007029321708854698
0.02016770411138897	-0.09151852209275772	-0.01325249073402792	0.006148735672226845
0.01624626737348575	-0.06174103566823579	-0.02237807718312353	-0.003320341706578467
0.02550815842065158	-0.02867743741021404	-0.009786490181584133	0.00193639004335832
0.01846955214811368	-0.006254408668414412	0.00438618813552127	0.004439120677804685
-0.005298563344321027	0.01545070401622598	0.002987314730362287	0.008571877254808121
-0.004893826469925319	0.08217885424206685	0.00454193979302135	0.004838376231881263
-0.00620077752238633	0.09620043955629978	0.01563454143788016	0.005682589086028001
-0.0114330889700496	0.06913032745004609	0.005773986071426811	0.00103615967882414
0.003930179788248883	0.06320617134007882	-0.002154233641002973	0.009745197919075001
-0.001217686571354396	0.03100608256326589	0.002862688797876415	0.002748432202165466
-0.0084214240348159	-0.05589832852848687	0.0002002250597561416	-0.002102483500883785
0.005089429637256553	-0.06220223407836374	-0.01470165177484789	-0.004000207496261114
-0.001169178852468126	-0.05716103066364463	-0.01980220365957729	0.005464508033004906
-0.002523796896629256	-0.02744571348586892	-0.01199338977780349	0.004886486509936014
0.001909839476354119	-0.003167245134795125	0.002385956229172461	0.005729001175296598
0.003840860545772166	0.03335727493899206	0.01737883532993578	0.01682333016657815
0.003902001883561084	0.09471647529668051	0.02263339096937564	0.0131381408586673
0.002938035500858546	0.1298294486623358	0.02100303515748629	0.01095345133071584
-0.001176432630537453	0.1172156780303885	0.01360204169704055	0.004778159750583392
-0.00992571009193402	0.1028230239190877	0.0126114692023629	-0.005484434221412109
0.01660888735840367	0.07355539777666222	0.002883905451659288	0.007318665129728803
0.03774979398998491	0.03983690207710141	-0.01278975294699756	0.002001470422950137
0.03493791137395585	-0.0009382792971431616	-0.002589769208071389	-0.01722493219952788
0.01055525069010826	-0.03185803731416583	-0.004343375544494574	-0.02388614436389007
-0.01672844467829212	-0.06701444946174426	0.00478571759753262	-0.01888148829257372
-0.00245359375561784	-0.06183851926945012	0.01166708416397302	-0.01633753765004024
0.01984802668042104	-0.08143293195090931	0.003261688330248764	-0.01165809514094983
0.01173464416216375	-0.1011342086876338	0.004094342143230543	-0.009952442449595275
-0.02154691958908822	-0.1059186337440767	0.02367569430427506	-0.00808193044012378
-0.06010974103842792	-0.08776490436692319	0.02404299833728056	0.002600792970773958
-0.06478138491577901	-0.03941758659335425	-0.0122927332851986	0.01207187748574601
-0.04030562565805223	0.01122781234126356	-0.01406593372722888	0.003481099624723257
-0.02019038548335196	0.02599447603271986	-0.01485709681418789	-0.0064098544251735
-0.006454814009466197	0.02316163144224044	-0.02079368753651574	-0.009873061024303898
0.003361413520408512	0.03279088462124768	-0.03201868138461175	-0.01272940024216671
-0.002455397693540766	0.01923457021355844	-0.007634328629640467	-0.01334522271227607
-0.02127605230360501	-0.01442579287974289	0.007686029095684427	0.004589247387210327
-0.01727490431575101	-0.01286263759885753	0.01747360770421326	0.01289914341146675
-0.002468015679555236	-0.01851821218701883	0.02232387964294767	0.01121383361301357
0.01283142789997731	-0.0252872267956577	0.01776019511452815	0.004390182481741566
0.01597573295299336	-0.03365751784430448	0.008862942305893979	-0.00508354615828634
0.01114670427958807	-0.02939918776848771	0.004795309840188373	0.02116242193283718
0.01631890532247942	-0.03306572445870588	-0.01663579206078846	0.02450779518422566
0.009142628182229924	-0.04664650641663543	-0.034244558966099	0.006577462202195839
0.003898150696471526	-0.03661417541549893	-0.01758155210928721	0.0002887094410860389
0.009145383176871564	-0.009553385787153751	0.001155580480009296	0.001624813857620629
0.001974808789377678	0.02227591467763125	0.005845940181553164	0.002773794843986831
-0.005370543923926801	0.02260847521705974	0.0103415260584061	-0.007487112024724426
-0.009095274415078609	-0.02976660975509041	0.01049585562379372	-0.006932670282833241
-0.003257574079539042	-0.03603948775971303	-0.005309503022654152	-0.006515040883501404
0.004310248889175498	-0.01492785874429847	-0.02700457246098085	-0.009717370729355834
0.01148056129178049	0.002455811531689096	-0.009304797658920163	-0.01300130277227431
0.008102815635444136	0.03376531702841828	-0.02399675876588598	-0.01542009081071858
0.01680566740278963	0.04548456862710873	-0.01536991163720701	0.0139729380294787
0.02736206281469008	0.05855630770919933	-0.01143853213004083	0.02520675671970596
0.02637634787922772	0.05411828156823538	-0.02163775470919048	0.02264683817404838
0.01738557632696976	0.02932956621163094	-0.02322360122362872	-0.00895035880143067
-0.004659456139348132	0.004701242057183756	-0.02660950033278819	-0.009690735598035318
-0.0101607046715012	-0.02819336413939942	-0.01782442229711781	-0.007015947986654706
0.004432246255702726	-0.02396148056724755	0.01223783096671663	-0.00439060624179616
0.01217344471961551	-0.006077789393269709	0.02676493493802017	0.00232102506089312
-0.0104760062572629	-0.01668595802512925	0.02939063468625046	0.006915450452416413
-0.02541557931868894	-0.01870903494242022	0.01760211067743469	0.005781795799993618
-0.01233913806411463	-0.02145922149301159	0.02293423458112259	0.01214688245685924
-0.004217315049265422	0.001707291140309725	0.01959319285792012	0.009500387025361021
-0.0130264409361607	0.03824968905169374	-0.005232674867354435	-0.006473166753897141
-0.02420650107510343	0.0380265829198456	-0.004828108603116989	-0.00318910839847869
-0.01927568929869122	0.02251302934152621	0.00821392539281102	-0.0009876475963249008
-0.01628296930736296	-0.009718479222635995	0.02036004862378571	0.009949903850213005
-0.01234635464032401	-0.01176280208719181	0.0123036503335692	0.009012864075613625
0.002701881672780391	-0.01015135672743606	0.0004387773873621356	-0.001877112256822061
0.004151547521391551	-0.01393943708847038	-0.002818698799436505	-0.01133636591624545
-0.0004540342540785429	0.005008891249625056	0.0005811255927511516	-0.01283171183680067
0.01470845560126859	0.02627972921154692	-0.0002078299696598928	-0.007853959914445284
0.01994471122413529	0.01303898868579075	-3.474735145949542e-05	-0.009163457636869096
0.01100391161248834	0.01135715277327395	0.01024806700394848	-0.01149621039828428
0.008722549009135647	-5.509824662101653e-05	-0.0001008154532605704	-0.005998283886054
0.01025028254422596	0.0104609119326705	0.001907441543933089	-0.003203187044024918
0.01293547530537067	-0.0217331483355762	0.01441402877429571	0.007748197140162414
0.01811124315789032	-0.03540620613133301	0.01041933102426593	0.006125436734764055
0.007786883837296978	-0.01777338951548938	-0.000714006322888558	0.01444380804448369
0.007322990078986122	0.02105116699162418	-0.01950177123880977	0.01139344642797856
0.01348385594298154	0.0469913556380832	-0.02173056563029555	0.009923554443584219
-0.001060039720365923	0.04658937373896194	-0.007873322477903719	0.006545613620678455
-0.01599605214227579	0.03181558073762986	-0.003247274014194132	0.006015143584278184
-0.01449344597648836	0.003475216138767623	-0.008113168909885277	0.005820042652503105
-0.006401904531846902	-0.0141677719934592	-0.01714666710950635	0.002591122014006732
-0.008619839658437965	-0.0231224341760273	-0.01521785317944832	0.01709787632205104
0.002710295484140931	-0.01404911997855047	-0.01791873052913966	0.01622242072554629
0.001663548374100175	-0.01078016322168765	-0.0192314857053498	0.00697258436277827
-0.002012801707704012	0.006859463954347056	0.007285452807763352	0.004439683828754187
0.009165215204772264	0.02857123939604282	0.005738192187244244	-0.01191260053254926
0.001025763412312557	0.04331484512185255	-0.01056167719311537	-0.01520250544777559
-0.007553287624662536	0.0318036870238454	-0.01701936460692179	-0.02013565334994943
0.005299076496775748	0.007822396479400712	-0.02083750015834413	-0.02429347150629999
0.0223738875092296	-0.00977838023339949	-0.01388209256447844	-0.01429651307283642
0.01332907368779403	-0.03874046834758173	-0.01436336138588003	0.01000992352129356
0.007670922583113097	-0.05450585314343276	0.0009637274283909509	0.003361499916252898
0.007774114482331141	-0.02485830490636799	0.04289759971058543	-0.007740017863149921
0.003829883370072365	-0.0032356402281361	0.02427892712955404	0.009692206168363008
0.008469930660695839	0.01513463342555233	0.01794999333910152	0.007439370445258898
0.008884836622665041	0.01801155707865535	0.0159562271598533	-0.009918405958838151
0.006801818520895211	-0.003407958422351747	0.01385131865022119	0.003619125008281487
0.008975038510827611	-0.02313082362078826	0.001612322034260841	-0.01779625101647217
0.009054667407660881	-0.0293519806370977	0.01440671115487677	-0.02330366217543684
0.01228326613175475	-0.05029955171494017	0.01147061214292148	-0.0121392814963515
0.01451444242742731	0.002097674454324768	0.007720328916725648	-0.001964846671019363
0.02138288141309614	0.01135749594824526	0.01716338649330724	-0.01070298829510609
0.00910823931196534	0.02094639787283063	0.02228346789765037	-0.008681114949133586
0.0001659881495943234	0.03067357934635448	0.003975504358297105	-0.01045502123150925
-0.01090185994593122	0.05114932168075199	0.00359597554948067	-0.01318708363908266
-0.01782229187082886	0.03477458812272461	0.009054830042384313	0.006475489278244055
-0.05136599793530984	-0.01854890609330927	0.005209962151703948	0.01168987260152395
-0.05993669591606931	-0.07646188975792141	0.0001777371335856921	0.009272152480095216
-0.06177836352399613	-0.04338302813318603	0.004475210624549197	0.005959445014911338
-0.0315231380864498	-0.005841618544508589	-0.0005443047588790707	0.01184292131090074
-0.01998305455758037	0.04595660442788511	-0.006766587831165894	0.005895909195795614
-0.0256379019516728	0.07903756380117932	-0.01245963995778751	0.004652932401547508
-0.02166204836696873	0.06380915967030006	-0.01096873568287651	-0.000361184138233811
-0.004482496749580053	0.07780912625314007	-0.0008760419099107504	0.0050112494266214
0.009106858706858571	0.04626210229622537	-0.003511236999351929	0.008917423593742053
0.01893518343440977	0.008480527208761341	-0.004522944395952733	-0.001668775826786262
0.008891380309391786	-0.04540024423229171	-0.001998291336983041	-0.001549759799824634
0.006846300262712326	-0.05879397536470533	0.003381671318499796	-0.00199550417328372
0.01164667005803688	-0.05190397288226285	-0.008791966422993111	-0.002823074943859675
0.02753082590836741	-0.05480913108382943	-0.007683774499251276	-0.0004355890721919644
0.01472522147693995	-0.06613545336955377	-0.01392203591129194	-0.006915538847185787
0.01973111955883042	-0.03719002260616695	-0.01769243214792177	-0.004812507955535198
0.03057013060206813	-0.006809196849809599	-0.005774994094500417	0.004617208279813431
0.02202039015420092	-0.02766805568685174	-0.004596097158036393	0.002103254113361294
0.02113152119251338	-0.025524066535613	-0.0003486178282443084	0.01486856852986102
-0.004853385526206504	-0.007663154448982022	0.005325868015333896	0.01608956137600104
-0.02377288466105622	0.01719360879892565	-0.001198967605411143	0.01235719660105026
-0.04947852054940335	0.04258842614708591	0.007753371254258805	0.0002280770659181497
-0.04439583646873832	0.06256740729202663	0.01060987829691493	0.00441905241046307
-0.01077015858178569	0.07537483101488089	0.00409641253937617	0.006316079877429578
0.001367053599966196	0.05298920681443973	-0.0001033531968352825	0.01551187248601378
-0.0006291110109997995	0.005361648921960013	0.002281818871771125	0.00907351507998507
-0.005944471329929703	-0.01187790433526919	0.02122057424501417	0.001355665851136982
-0.007756263609744297	-0.02539746367437098	0.01643518605594512	-0.001142738989092009
-0.005518047060462408	-0.02674554771180507	0.008781367321934659	-0.008387033198306798
0.007526046224056952	-0.02366586820247114	0.006613769196534408	-0.03007871934986572
0.01118369929086523	-0.01174263803541308	-0.005867441502182769	-0.01446798273015155
0.01428660939046612	-0.003699349035441447	-0.00440541968424592	0.006408661909132991
0.02422912351315049	0.001032923041714938	0.003828195766628216	0.002771409788626047
0.02597902636955255	0.0228827858189546	0.006126711901446684	0.007153341310700532
0.02756762849275811	0.02083787264938939	-0.00239066517774536	0.01011143182116993
0.02663163150149878	0.01038657684489579	-0.00345729859675007	0.01846529829131962
-0.001254117155566202	-0.01443813050890211	-0.005838315545077381	0.003512860055839661
-0.01072914642166625	-0.03269914111739092	-0.005035922924523728	-0.01318239354518292
-0.006693343416661101	-0.05179166662175209	-0.009320866777265948	-0.01575073623467057
-0.007498808558801102	-0.05022224136905151	-0.01315231153159975	-0.005264303555805075
-0.0009080778169216371	-0.02202471255901688	-0.01475103306690145	0.003344681569705983
0.007528770589315951	0.006714728348943422	0.003916233702023843	0.01256470174791804
0.007914204002937689	0.009315115464163821	0.01622349754833442	0.01473607304815753
-0.001766127315823776	0.02209314524250042	0.006285487993200861	0.02023663559221699
-0.008515617843298941	0.007379919945638241	0.002747035102854391	0.009715049905032922
-0.00725114276045547	0.01653569304594187	-0.005889832079585944	-0.007855352484389755
0.01557717245164998	0.02078298337058418	-0.01899500078546004	-0.0112413428535966
0.02776141635057982	0.001264671760286154	-0.03815060116903506	-0.0290128292680853
0.04415508979223712	-0.01644718177780505	-0.03526366609177679	-0.01997909507890048
0.0426828663171117	-0.04463029338577315	-0.008498568737217587	-0.0002409343083364132
0.006781566422777034	-0.08795113855311604	0.0003612409627120093	-0.004720519265284555
-0.01120728173745341	-0.06687537616465025	-0.002304889624821827	-0.004022499367641747
-0.006502778536573496	-0.01202005295714085	-0.002794284293573382	-0.004872814976426505
-0.01088840828516178	-0.004902277145071748	0.002863016585722252	0.008917460419660468
-0.009490869630912889	0.01512176463349663	0.01175718044585567	0.007531921476928344
-0.01185946181502554	0.006450032853290646	0.01190850646182622	0.001592903289069093
-0.007080641590533622	0.04438125066083835	0.01184662723113623	0.01998957311849929
-0.01253577409969971	0.0436842620725388	0.01320105832033413	0.01794636372772355
-0.01248762340864842	0.01948133181162492	0.001855342708612323	0.01766838224007798
-0.01890477023672828	0.01139849863147344	0.01019621964437985	0.0175945924517526
-0.01934443129175928	0.0202727823776302	-0.003854268597768027	-0.009868645698261673
-0.02797917253292058	0.01444737804188441	0.02564726480322503	-0.02412502322538302
-0.01742072081061736	0.007357076529918237	0.01581533954328226	-0.01449516991276825
-0.002846035498945098	0.02358639754935832	0.003452286000365825	-0.0111233756101552
-0.0005101654513793283	0.005629134915193135	-0.007895710217177712	-0.01312852232000717
-0.01092307791311265	-0.03080150885838791	-0.01105916681492531	0.008640682040470433
-0.007763217645830056	0.006944554077704494	-0.01298841791445839	0.003685272431840289
-0.003381163806922139	0.05302917192816021	-0.02665040220461836	-0.00573410945054987
-0.006047529017929499	0.09275471625438747	-0.01242509186884764	-0.01631668953290885
-0.003046981876598279	0.06305971183531534	0.01940700315249805	0.00107794257354388
-0.003442022240622423	0.03861363077047804	0.02933635470724389	-0.007046956200970347
0.003837269482135495	-0.0004303672041700322	0.01777376067595857	-0.0145085077574263
0.01925512883170706	-0.05118179744914397	0.005698163853285027	-0.01576718485891585
0.01879157149638995	-0.05151799005079872	0.001146111356399106	-0.0109196518032992
0.01386102579121921	-0.0581032724868383	0.01617236616082537	-0.001471173954585442
0.02126774284672139	-0.04608097419566588	0.0001891316927346602	-0.00802553803555715
0.02264883418518481	-0.01411561003717908	-0.006447817142287067	-0.01448518519006507
0.02186015030769912	0.01389138994670803	0.00044608054097577	-0.0008810639040244904
0.01112086006149855	0.01890781114601595	-0.003799294901440439	0.01368754814185388
-0.01467203386000242	0.006949111953355078	-0.007703286464638161	-0.0004784753903979526
-0.03603416812486553	0.002131244284207167	-0.002542138745245108	-0.005306070580465947
-0.02835151247295598	0.009655035571370037	-0.001437410161476541	-0.009202171579590371
-0.01814758013185237	0.01315602418088031	-0.005509261506864102	-0.005330593930523369
-0.005992748194716779	0.004622248306680923	0.001561279918467843	-0.004306069356281123
0.006285161487378879	-0.001766481317766964	0.002873214616534333	0.002891190497368453
0.04923901416600286	0.01689925045904159	-0.007899703572996821	0.004028088607612978
0.03844639376722461	0.0412275209223855	-0.0006296060459044539	0.008363477995266565
0.01217769120803647	0.05735494237228494	-0.00330901026153276	0.01350793134095768
-0.02889949670651701	0.01618587334785478	-0.01162087539686226	-0.0004681533897298417
-0.01371717980896664	-0.01119211939439692	-0.02464984531061659	-0.005499670985697471
-0.0007884584360222284	-0.01569092379494817	-0.02837052643409985	0.000282607929412655
-0.00217902711699953	0.003451909897480264	-0.02140761607920968	0.00530282944052329
-0.04291880073849599	0.0159741637057521	-0.01442399275690861	0.01140315019797358
-0.0571973011782066	-0.01951487434198527	-0.02808152693178513	0.0008842356553303094
-0.02552778681603473	-0.04942878654306388	-0.007042539436424623	0.007335699150228938
-0.005520882023077174	-0.08180962606425254	0.02680880290861988	0.0181036747682771
-0.009541947163710355	-0.05799745177786074	0.0310620052808979	0.004628911444659288
-0.01438696311257159	-0.01941856760188973	0.01413754193958369	-0.004968638465085829
-0.007537142448403204	-0.003796163153500965	0.008014660580778574	-0.01947304808978353
-0.002863913850549024	0.0001505827693974249	0.01413422141835496	-0.02020806524186401
0.01277084054886075	0.00381466797529665	0.004484960674680965	-0.0156427506080651
0.02058201072151662	0.005302444073836456	0.002617767637124332	-0.009161961895083035
0.02139797133431325	0.001715042341807402	0.01453807095436089	0.01190597967622903
0.01678029173187452	0.01711487667606123	0.005900153186913329	0.02396829002011885
0.02117825965307531	0.01061104642322319	0.01712682678912042	0.04552702376233798
0.02914802499026135	0.01062135722634321	0.01511579195023938	0.03175625121521355
0.01632512514172423	0.008051917808338386	0.008246094491774165	0.01496202648928066
0.02063377309887103	-0.02181617520123329	-0.01839174413499112	-0.01132369053162756
0.01623769435167502	-0.03750588339315852	-0.0196787949555979	-0.0199274551238979
0.008312030111002938	-0.03759090958338102	0.00219482901008464	0.002391207509392664
-0.01446569258252152	-0.04236111003625938	0.004630025179681821	0.01388339802102122
-0.01486620060292264	-0.01992960478532498	0.01078749890009069	0.004939547137185819
-0.008370424295244447	0.01237800042012507	0.02962800320713673	0.009503496065394789
-0.0146552368472607	0.03968201300096292	0.008182414547050092	0.01598678520204661
-0.01207546389019918	0.05156140782512099	0.001882814661627955	0.006478006062468423
-0.006190452288194108	0.03106245599248887	-0.02005292231235845	0.002696822403081795
-0.009950656884741702	0.008534998594825488	-0.03967956251768195	-0.004454109588256162
-0.007540133960632935	0.01004469180853377	-0.03448264984543228	-0.004797158152248329
0.0004674238639840235	0.06552062584537222	-0.03401619624599791	-0.003274496818477104
-0.005293723013606205	0.06382136881084975	-0.04312078469981525	-0.001096522894950948
-0.006313478794183992	0.0270439512252921	-0.02172512583919286	-0.006504241468120509
0.003316813203143554	0.03038340034236546	0.02445596110476585	-0.01758151761573292
0.004491516700036833	0.03186772124445707	0.02354904160460173	-0.01031267657959003
0.003499764505963513	0.03033942064544981	0.01302355773800484	-0.001885779348044688
0.007974412414196734	0.02063871795291177	0.0396859513280741	0.01191159258727356
0.01644675315420111	-0.03307029441467475	0.04857640043280202	0.021661734860873
0.03101842788327748	-0.04621678548065612	0.02130661435733684	0.01519554690197075
0.01667010078139188	-0.02355471359907046	-0.002527036694565177	0.01341026834816579
0.01120183751757564	-0.02996896878771014	-0.01060856415238137	-0.01092350849572407
0.001542404312639106	-0.04413394838085278	-0.003231566306033909	-0.01702444768817388
-0.007631000586128862	-0.0717115216546302	-0.01139824389337089	-0.009900338259420303
0.00370786425240987	-0.06459300531274437	-0.01896845273046051	0.002229991828990687
-0.001205900376322374	-0.0351094290221023	0.001180460541208608	-0.0049036496760666
-0.001591683773175373	-0.02034978131200374	0.006789030203275758	-0.01113897172907575
-0.0003280994790234939	-0.0130679811626765	0.01567721291475598	-0.008312894087724326
0.004718190228413461	0.003356447998808795	0.02345300215152571	0.01557613937630203
-0.01108927786551801	-0.02119598982312613	0.01029448430299511	0.009961205160939872
-0.00795344655875542	-0.02943355863362804	-0.01689550185583264	-0.02211629353841205
0.02505054456729151	0.003011730824037701	-0.01330868073725401	-0.02107311865787778
0.04090206035104429	-0.004323948534367785	-0.002628007259130561	-0.005691989152603078
0.02258701322115214	0.02748032027710298	0.01106595893003644	-0.008378085802570899
0.01879951118618746	0.01449506087721146	0.006035949818304063	-0.0126944460857825
0.02706363415673277	0.02174668605838258	0.0007437035588527857	-0.003195663239015873
0.01519745032483907	0.01141526367637127	0.006838368017003415	-0.002540701868210021
0.01282414886964817	-0.002230142814665913	0.005146331110865284	-0.002380193518410334
-0.004140140301586596	0.004601126546698066	0.008531928653298314	0.004556123103533134
-0.01144570067683442	0.01835202413313626	0.007684843049954881	-0.003762367416273424
-0.04518463514759995	0.02481129654771163	-0.008248679238825819	-0.0008583782697829969
-0.0545102274071794	0.04903377686435365	-0.01355030607843132	0.0008971621041714546
-0.04114023184586203	0.0507603137834149	0.01141898662818443	0.002842359200871568
-0.02074656069191017	0.02591778826143456	0.0007532499533431015	0.0002545078208763362
-0.02097793846716808	0.006157474163090479	-0.01742380350346372	-0.0005032570583568925
-0.01455021090214832	-0.009934609270374855	-0.02780811540719422	0.006431451112664046
-0.01485991808964056	-0.02666795319701405	-0.01587612334904447	0.002235338373470389
0.003178076677371148	-0.01092366828451748	-0.02344312441573384	-0.0001834233801373404
0.001336884050270748	-0.00902992342653914	-0.02785398820602808	0.0003193668711408734
-0.002507499560467684	-0.00842168021849931	-0.005697873873569474	0.0004395342284365507
-0.0204089757710555	-0.04602238199395799	0.004015639757873242	-0.0008880496616962175
-0.01243519477791375	-0.04028446852264985	0.01404636109557383	-0.003850364597251084
-0.01642065853007194	0.0410044434985142	0.01415678672480405	-0.002221939754482127
-0.005547887071971308	0.04227590317817134	0.01811134041154336	0.002073312923806378
0.007893541119501406	0.01463518518390204	0.009782651096316583	0.01077684832415381
8.148448061976653e-05	-0.01954910717810134	0.002430331326043605	0.007730362258954829
0.00366525348460624	-0.01713169544758965	-0.001646645997882055	0.00450733713885279
0.01973090715181761	-0.02036660209134863	-0.003596821035598782	0.01807749721238756
0.02237653976904724	-0.03365056306021713	0.004541708788591199	0.01191023026581405
0.01390601714329014	-0.01070128670040007	0.02799988828611459	0.003200771870974213
0.002690461688164749	0.01501460912251359	0.0007024415490151149	-0.001499709646173558
-0.006239180458781553	0.01132525004316327	-0.007860260351794785	-0.008823306785295842
-0.002815475530234721	0.006239000349928003	-0.01999880585880428	-0.01084092182963435
-0.0008086957665273289	0.006428882333029959	-0.01059189690976256	-0.01403681128792602
-0.002637635792788562	-0.003530142316299262	0.01262935158595699	-0.001470898207960293
-0.01654759427724532	0.01655469367476459	0.01932127731280963	-0.0145511136994392
