0.02361875627780402	0.02023421710032277	0.0412366337221744	-0.01122641634982158
0.02226411854087278	0.01923947327313498	-0.0121950936732349	-0.024835160733479
-0.02222953084911371	-0.0006450513446657788	-0.04896824737161148	-0.065348198826819
-0.02782955099926549	-0.008418441724108949	-0.03774728784281814	-0.08692311099383339
0.009533008747478255	0.005801701504963745	-0.02186568742790596	-0.03319207018796502
0.005652464401632703	0.02362404944030817	-0.01008685616774132	0.04078101688909184
0.00804683611278726	0.03134888245123493	-0.03958462457227122	0.03978112477428505
0.01903550794854111	0.02329674552565488	-0.03267506757943414	0.03768624337623054
0.01603435029093187	0.0203172432922932	0.01827149818114179	0.06037870181691481
0.005130699306903814	0.01217929627069738	-0.02874210454676047	0.04721038643172251
-0.02148827957281172	0.003300904715805467	-0.05515923764725718	0.04573662051080454
-0.009028876568062278	-0.003125834097246154	-0.04296724458492675	0.05026325426241354
-0.003434361260588918	-0.007166061312409766	0.007844489336967513	0.04555335988995009
-0.04025722938741465	-0.01295150897755244	0.01729500189195219	0.001620729629338739
-0.08484031058875227	-0.01029329241284537	0.06236859272615446	-0.0342040787720857
-0.03515880304638627	-0.009342622963401104	0.07563009867408675	-0.05736790493785449
-0.01565395716475806	-0.01314887512125352	0.03279773125999222	-0.05159528201073198
-0.01431850572490122	-0.01648189055623697	0.006995216946797033	-0.00219774760797889
-0.01726978675610129	-0.02162226629130321	0.01164128006534951	0.06228132043139603
-0.008339229901632543	-0.01220360411607201	-0.008154480258720384	0.01065043781053735
0.00368183757340711	-0.003740716862902711	-0.01163942931914453	-0.01423701499694395
0.006826138188652453	-0.006384449821765349	-0.00198938230579815	0.00980512268559177
0.008493215125919698	-0.0108997101048544	0.0006727486689396863	0.01649490518880558
0.02063519097685342	-0.009516132940181488	-0.00381792353190873	0.03179845637262449
0.02678937134962166	-0.008534101635796968	2.287106319553739e-05	0.04689734859234682
0.03752293939019618	0.0008451569523624095	-0.01012453140431965	-0.04486654279183467
0.04055688518303484	0.01198369939704133	-0.01855241323995474	-0.07432010586532035
0.02695494984954075	-0.001885235941574396	-0.02528520755321082	-0.01913424842624511
0.02866160805615366	0.007767119386806849	-0.019139727355981	-0.003963709024847779
0.01827741612451797	0.02022137327774418	-0.01108633084878702	-0.01612644116949249
0.003830932476540029	0.01101167704806356	-0.05334094409174748	-0.04021290097027425
-0.007207182791711095	0.01247163350543521	-0.04694262523264794	-0.04288165179651326
-0.01493342439917992	0.01577659492029655	-0.02930002737116537	-0.03267986499200073
-0.05231236757394187	0.004969460558905369	-0.002676426609828145	-0.005480643023254046
-0.02233215701542717	0.00161915655206567	-0.0156396428612583	0.008775401089708226
-4.657808781107735e-05	-0.0008841469619360633	-0.05204631363720404	0.0713128994786144
0.002770154604018776	-0.007577137649919057	-0.003636149570285735	0.1595974170629914
0.004920937912987101	0.001048293315330955	0.03285550108754421	0.1307804191172478
0.006023506081580789	0.006547405365806877	-0.02591855038651785	0.05156269506743676
0.01474319070872717	0.01782204781576101	-0.03482584679426556	-0.02300773163471132
0.01304797779190836	0.007203849222517876	-0.02207003854233746	-0.04566233181576199
0.01084326033134325	-0.01114925737335463	-0.00233218441108822	-0.03552062481044799
0.006191627824328793	-0.01228950765959001	0.02028547168453966	0.0008535529160585823
0.0003694811190418096	-0.01717846851782971	0.001456015431341474	0.003404338898612083
0.008322200316087464	-0.004148132954278294	-0.01111479884690243	-0.04160182223052283
0.009774405478383923	0.009755453621479886	-0.03348707819964707	-0.03449634222330661
0.01026232898794776	0.01232538927187382	-0.04606259898886323	-0.02799484970351347
0.009762395317783983	0.01726962878921382	4.283179917004063e-05	-0.005302128225481405
0.009354614446142507	0.0198005106743751	0.04052521693817258	-0.02077483570675758
0.01237165149294759	0.02017374768910228	0.01028230578812869	-0.01904651875818002
0.007711307340351341	0.02312987746808893	-0.004752171619604338	-0.02853652307920171
0.0011159802704604	0.02519325004922297	0.009194213156850031	-0.02121280567027542
0.009015932661670048	0.006925227721265589	0.01010522345293675	-0.01669220754473243
0.00359490840206991	-0.0002533356435991623	0.008351649825091343	-0.007334443618805524
0.003252937925860087	0.001375455611022775	-0.0002762756903269795	-0.006958690003626562
-0.001930630003011588	-0.004325181037699721	0.006463861173719169	0.004258557551869633
-0.006204304651414602	-0.002239704019648004	-0.006472468540685334	0.01493802360058363
-0.006699069799781205	-0.002217692771637589	0.008873131665956194	0.07141611704061393
-0.0001892087068109798	0.009767864402769758	-0.01433326170090608	0.05707057286542112
0.004840422390544104	0.01140435802619839	0.06488749565570495	0.03835930529387742
0.01488070395547962	0.003426269521442659	0.07274214344443693	0.03291908346398617
-0.01852384659164465	-0.02034462575019625	0.0358868759612636	-0.001728135648368484
-0.02850313395871852	-0.02138650977051202	0.05037675438484518	-0.005062519548832717
-0.009469726407924156	-0.01236815603443198	0.03243836559647267	-0.02039863159585877
0.0004444163828421697	-0.01701862441886918	-0.04980260697517883	-0.03684897617245298
-0.0008133045720599894	-0.01489050649717913	-0.02775746543251704	-0.02926029859165237
-0.003071224764202293	-0.004598163240372452	-0.04189115582583609	0.0274222153612161
-0.01590374777245657	0.00503780152484276	-0.06507502448614569	0.0731737859920001
-0.01419596228620811	0.01470790810874414	-0.02197330562281046	0.004482578113595855
-0.01033629637873583	0.006047444293069183	0.06569291699036617	0.02902035028119144
-0.007699233998977907	0.0008897636320567223	0.1224589395551774	0.02771191835495689
-0.003593737516793858	-0.001505865069961292	0.1009676413042351	-0.02384062333461552
-0.000291946511446479	-0.01117604459399779	0.03584780167039641	-0.02931876876521611
-0.009998214908395992	-0.01455480676799253	0.007538874836208959	0.0009190648931030334
-0.01088337538849558	-0.01780816276801097	0.04164977632903688	-0.02010343004021829
-0.01045484049190896	-0.0174873255015848	0.03502131036848333	-0.038323937763626
0.0003775539493202492	-0.008636875434449581	0.04715634016763238	0.0006062571400300963
-0.01493413716074267	0.01087294080403757	0.01747146837515995	0.02193323985920715
-0.02067989029115176	0.0135773710514931	-0.02794119734533672	-0.0138656014121548
-0.004025554967182363	0.01293155598366292	0.01505344046036016	0.0004001354796833967
0.007967044273993093	0.002478433744452383	0.01524600008071364	0.01110733678141439
0.01765114460536399	-0.003540842731964839	-0.01271364472499273	-0.01790591816205639
-0.002350311507345182	-0.007934035019081406	-0.005589517617918561	-0.0198582613622336
-0.02623821927909478	-0.007089984138612275	-0.01491101824067504	-0.034965111546866
-0.008510737280474794	-0.0003201604215859708	-0.04109395661978726	-0.07646666012760533
0.003153641539338032	-0.01000338847769136	-0.06298169032693317	-0.07479554514800218
-0.0370773498902021	-0.006960353158891534	-0.02699184223676204	-0.06160818428979157
-0.04455694385936525	0.0006904211124056879	0.03131185014407728	-0.03300285496786824
-0.007455778635427252	0.01028912608341556	0.04057623990947982	0.01342164535331315
0.04683038279492756	0.01783962372440399	-0.003607042875669117	0.008771109073350396
0.06158966469709042	0.003878395467134686	-0.02951607405227956	-0.03119557902059542
0.05839400198083797	-0.0009727364158918662	-0.04520685390815703	-0.03626681200030734
0.04838813538718272	-0.01272131771659415	-0.01295826704901366	0.03139084742581656
0.03154376115416123	-0.006428132449349352	0.01923559171486379	0.01472001320752563
0.02902336019605831	-0.004574033815681472	0.0102379360697983	-0.003605708936791146
0.01699818356697653	-0.004647753079196891	-0.03638849279647361	-0.003828874166008005
-0.02356627820818372	-0.007810858830142793	-0.04165531071875259	-0.001018567025030486
-0.07009644462680895	-0.006892585926226534	-0.05072170079802891	0.01879734539067552
-0.0845198275801415	-0.01421620765088196	-0.0703075707933541	0.03262270988121305
-0.05075049766597586	-0.01781715314317254	-0.07832670714963902	0.03854208889905068
-0.02915918057846907	-0.02519837132084016	-0.05248876476032279	0.06912564486514747
-0.009396985562589319	-0.009793426587275941	-0.04666204744163429	0.08518093199670126
-0.007155882558673191	-0.01205090686905688	-0.05852327928584835	0.05181008149362189
-0.002266461722017766	-0.001766851151528619	-0.03535263527820463	0.05648047391159477
-0.0006153858025800215	-0.001295106729635502	-0.003387603687510504	0.04562167722020408
0.02018214892895921	0.007616102079176598	0.009221813967640135	-0.0163616716832374
0.02753217801097709	0.02059252833219418	0.02307508185063697	-0.04487222620362691
0.04485573635597989	0.03707006658172654	0.02275228196397081	-0.02328392929105268
0.04914083673011985	0.02703308623920815	0.02628089401455679	0.01304312599459702
0.05346265877888177	0.02612421911852177	0.01232024898946321	0.07147634190413746
0.04794810579770969	0.03969289070981426	-0.01724783810948798	-0.03484873586688081
0.02131253103666698	0.03542072599271308	-0.0402509631136809	-0.151947001349527
0.007194556532598687	0.01397486792828958	-0.03210907507936233	-0.1436711810484669
0.0136949448287457	-0.005976017469423559	-0.05147862775712907	-0.02601043876609005
0.003457026556157231	-0.0110117865466042	-0.03002755430541029	0.129621449740187
-0.01566850208762796	-0.01259754735953048	0.08806710992696237	0.1544295749055788
-0.02220007081501514	-0.01007136568166323	0.08903787072680845	0.02070461427636845
-0.02961994440003605	-0.01565478960255728	0.05091207644073458	-0.01727964409445676
-0.03124743804717368	-0.01803703782408594	0.01539002855784656	-0.01577092179479448
-0.004748175643409916	-0.01269473678837465	0.00395308001253398	0.01198935888653105
0.007331547147483983	-0.005451214575577839	0.03908463177471501	-0.02459812373184368
0.01410683307519136	-0.004830949418808997	0.01076893425368617	-0.02601909622874888
0.02258848200290113	-0.002777134229776924	-0.01654668776787624	-0.01536033597705359
0.01750649759066361	-0.0008395782073948377	-0.02207972277160785	-0.02289524596755741
-0.003229509975927421	-0.02445552598476289	-0.02359642087373349	-0.035517257390337
-0.01098177821435362	-0.02676308508791277	0.01182680763936478	-0.04226898091402589
-0.01401163900553006	-0.01191410242437139	0.05390878064085936	-0.02704182096256405
-0.02889442830287434	0.002517523440742601	0.07297766534117281	0.0416740821636252
-0.01043493013346427	0.0209825811209154	0.08432104566081178	0.04050992366336404
0.005376720013190164	0.02331891742525131	0.05643249136159291	0.02459153913074053
0.001386844240052958	0.009098381487503353	0.0206659747874272	0.02882668147942355
0.008959997284328967	0.008721404233057868	0.0375977433366257	-0.002035573733509804
0.00907211431082753	0.004357181939389504	0.06811054730997319	-0.05145474917622281
0.006910085657228257	-0.006185300118297058	0.04229683162785754	0.00622816473746244
0.001576880699579909	-0.005262881635555608	-0.01852358092160968	-0.02490423619278055
0.006820396023310289	-0.00190216431783355	-0.05724793586540346	-0.0491765593231038
0.008985840259404042	0.007295766584373234	-0.05795427364671345	-0.03981839237101543
0.009276060781640096	-0.006501844907566241	-0.0504416960232401	-0.021797544154489
0.004098355484840505	-0.02993849596722199	-0.04649956535644565	0.0218425095703101
0.00205464641710502	-0.02626217001130813	-0.03984507376968678	0.03782878863588805
0.005067155356474574	-0.02183582445842142	0.004761293282788558	0.06007028919800043
0.0094547127821814	-0.003941040446455985	-0.01675417708116247	0.03394724230862727
0.006447715347836691	0.00445408421567736	-0.02010822150207086	0.005697075770616497
0.005835059368690693	0.005528617966996799	0.03807065056385024	-0.02440638454263469
0.004718979405595079	0.01574870540061109	0.02005272147287602	-0.02273918707392816
-0.007087570433747479	0.01822081675622439	-0.0211944079706337	-0.01909178524591966
-0.02626962744114738	0.01431828258012075	0.007876724235830844	-0.01047118224766202
-0.0214174924482152	0.01979780980686666	0.01845188473345448	0.003005821208828282
-0.01184916517458461	0.02330730585979443	-0.008090669223192478	0.009653722485244889
-0.00336353951191688	0.03529315998291834	-0.02343684933343065	0.001141347159106738
-0.00373072623348177	0.02041309905089307	0.007687556790493367	-0.005808667093595072
-0.01176118876188579	0.008246880200251286	0.01987508889364921	0.003960694076256884
-0.02579800812313056	-0.01052284727396803	0.0113082547712282	0.01963041089495018
-0.01745846835824688	-0.02010938421766685	-0.002511522594246327	0.02465908407490884
-0.01752860273049766	-0.02391952141446825	-0.009450114043718745	0.00790249085560729
-0.02042864061433212	-0.0308485651646612	-0.03475783247208161	0.006085580761466976
-0.01633341878384562	-0.02462904641760973	-0.0384130902936359	0.01498114614661008
-0.008399555583292723	-0.01327715038084399	-0.006434903114428893	0.009806149060167985
-0.01317531965623926	0.0007192915309901217	-0.006322835839256178	0.01261218798789867
-0.01657272318196357	0.005207024251284129	-0.005817886381822258	0.006605028398623985
-0.02739083289902074	-0.009650277670383896	-0.0005248777862603145	-0.01056068990643395
-0.01474403910734624	-0.009627239314388629	0.001292169477281913	-0.01787681882983068
0.01084377147624535	0.004497955034366403	-0.03081016701907478	0.001636861621904235
0.02556403840076189	0.0008912123042976011	-0.0596474463510699	0.005834861919474555
0.03525160453684509	0.01012432516021624	-0.01284776860525578	0.00184491334956543
0.04101745231260802	0.01065902980582324	0.0107892361432398	-0.002878994673761883
0.03991938183306403	0.004894145087156639	0.069877533653863	0.005206441902732889
0.03591215647163234	-0.001150687500134907	0.05835087844757296	0.005947390698346687
0.0245588849761512	-0.004521130034000679	-0.006937069888120252	-0.02692622237709705
0.01662017182214522	0.00131331730318043	-0.03099067986826151	-0.02461386733039341
0.02409560221819245	0.009389698144699744	-0.05559455294806766	0.001112868650709383
0.0201928499705533	-0.00612823167144835	-0.07646479497973131	0.008853162237656613
-0.0459069755524071	-0.007520349425846944	-0.0820442445148386	-0.02899098903686844
-0.05753671687047382	0.01684076300050925	0.02572485374786217	-0.02560370286408748
-0.04723514071931148	0.0336602535636994	0.09800833252668678	-0.02610053366950513
-0.05244392608017524	0.05519790596047699	0.1168714379934356	0.02802354590449459
-0.0194666480451304	0.03819677917164553	0.1186835633293656	0.05368294502920443
-0.003025666801738295	0.008014172525041489	0.06387168348740947	0.1466523251855995
-0.001181661849596207	0.0001963713171680563	0.02867508323817152	0.137180356094731
0.01191422987942394	0.001132422159249916	-0.007771439293437068	-0.01724983600161905
0.007705310976258162	-0.01156335870940499	-0.02913515058935655	-0.0423244651558545
0.003003646372306816	-0.01764181587267839	-0.02014931283489243	-0.05041867807262237
0.01297613992185757	-0.02685637814079816	-0.02680777741011924	-0.03555080306358774
0.01112314795778548	-0.02058293531332358	-0.02593322614042396	-0.03165833198854075
-0.0277956715490939	-0.003152247347074177	-0.02934441529998038	-0.02937753659156952
-0.02751065869679278	0.00507217183215498	-0.05545325305821291	-0.0977167597676494
-0.002078737511059851	0.006896762447859882	-0.05505708453887572	-0.1044230836477811
0.004191197370280278	0.009214875772951773	-0.04585241121641175	0.006376761175816413
0.007255794646058319	0.01127382646688448	-0.03534771146531641	0.04198542617086506
0.007616101114141863	0.01867745695008969	-0.01547028204875587	0.07416521657803328
0.0003941076412765741	0.02189662089913469	0.04165894774814716	0.03757237048171537
0.002898562926980259	0.009206772170237278	0.02544854718720945	0.03220825513493804
0.01638659556135363	-0.003036842845717452	-0.02038875637464334	0.01274399788203393
0.01406963769284148	-0.01174126824173258	-0.01177477921430668	-0.01113540114107108
0.02904622958429069	-0.01056959130314636	0.003926905530593716	-0.01515390387155792
0.02640746364551963	-0.0126326397924003	-0.009194842362662608	-0.06164704196080029
0.02282818330216338	-0.0008392806243088624	-0.02652219725917688	-0.0654478303311852
0.0155098488663829	-0.003688817628778937	0.005631571837908854	-0.03829130693001048
0.01172285591783543	-0.0132806542991872	0.09532863505709131	0.01440728602511803
0.01186325527983497	-0.002039149571248138	0.05370481828943304	0.02036063826111754
-0.02873239497474768	0.005299437459651348	0.02059548211880552	-0.01615662277252105
-0.02973180675468138	0.01705444163531836	0.008728552527454997	-0.005388275135327575
-0.01612976149295358	0.01237513118468748	0.06649738277699263	0.02287330080578831
-0.006339843131724782	0.001484228414047267	0.002492609849863998	0.05764700062212766
0.007664903697725443	-0.01096708058674917	-0.01111567470824342	0.05821678041428405
0.01469163511726056	-0.01915218502674593	-0.005320597144350439	0.03980301315911102
0.02766875511016959	-0.02225092468289685	-0.02170684077789877	-3.433964620461996e-05
0.03486997093373129	-0.02482376273338588	-0.04187661254780498	-0.06357681172998406
0.03389169222549965	-0.02271726340996552	-0.05620553427773448	-0.08087876168207363
0.0379970644949825	-0.01366308253744379	-0.02691987614898343	-0.03522121248414913
0.02750717044794258	-0.01583162052070485	-0.006302733321775253	0.01008468258694038
0.01198787758100538	-0.02252182996324868	0.0219881965841923	0.08677043669084791
0.0002118920580004609	-0.01992789135627058	0.0206808692202936	0.1251302069273744
-0.0270209248016497	-0.009382307096027987	0.02701353641172688	0.07016978133812149
-0.02105783787170854	0.002257851711559963	0.03783499546583528	-0.007501949901965586
-0.02287678392917564	-0.0006629778874422535	0.03582142863650344	-0.08218923581075838
-0.04247272064001637	-0.0001018978781878014	-0.00986192953977554	-0.1064789493354829
-0.01859782248768242	-0.003171470947780977	-0.0831480297908187	-0.1027415048101642
0.0002414020747043071	-0.00474036400966329	-0.1106735059163671	-0.05682079361075545
0.007356845086549796	0.0004536312470434453	-0.09358217454907992	-0.04475252167410253
0.009979844602147335	-0.001752271649751175	-0.06827958369164883	-0.04920147926829989
0.01104625144529039	0.006968008217435168	0.04623856940308785	-0.05833464809122211
0.01309902927000458	0.009692203101859739	0.05425750204689368	-0.03531219221777937
0.009468579521838433	0.0007109147067865338	0.03230904475389181	-0.0198438493198349
0.007753866544999379	-0.009286907248049175	0.03593702004209274	0.02618777884513848
-0.0004248043180344278	-0.008778011207314126	0.06120730036289277	0.1968177782131034
-0.03834967579032687	-0.01360906153338826	0.01908695198823755	0.1312436253454035
-0.03421667307367806	-0.007784865950674715	0.01055703612631458	0.01268810429905602
0.003653759466565696	-0.0001265816472579207	0.06895916571669147	-0.009175976542706417
0.01262190058037287	0.0007566413450701352	0.0768018451411794	-0.00827678032108935
-0.0002619118762860477	0.005039234993744268	0.08275805655649469	0.01380596667079985
-0.009291687885763695	0.01197030569407524	0.05532247768497531	0.006564799201151385
0.01550799711262375	0.01082635438693302	-0.005498845705072496	0.02482923234089431
0.01807270303986132	0.01856562552852884	-0.02192542255407835	0.01856709425824822
0.01361024649392933	0.02396593310383793	-0.05729602658191647	0.006687376766604882
-0.009214343579203924	-0.002577179019634758	-0.05286579888578798	-0.01751455752052724
-0.02781798898845996	-0.02232034437084208	-0.04139587010383358	-0.03723213127988462
-0.03353949358338933	-0.0215751140232726	-0.06152717227886371	-0.03273907151860724
-0.03843482540989737	-0.02323144367254861	-0.05295417314248069	0.0235723972216929
-0.02628687399240002	-0.001932038414000818	-0.03083341383803642	0.01744808044211922
-0.009320463821981571	0.01730018047013121	-0.02116151111238961	0.01780284738568379
-0.01262144658863739	0.01256197939498669	0.002112978708467818	0.08636392311101325
-0.0074952190053242	0.0153360357833898	-0.00742422475032741	0.002567284960673765
-0.005374570289920168	0.02659482405509656	0.004245681024790563	-0.06877478341521887
0.002967158862143926	0.02276681213335584	0.003406131703316357	-0.04729606940227466
0.0104648552452228	0.01485723147612606	0.03827923396564649	-0.004452182661620764
0.004048153328266132	0.005697757090853084	0.0340753862841228	0.01736934966768425
0.005337466637761014	0.0008542182956491082	0.06523437487819729	0.01635024193323316
0.005627041157657347	0.002768978046474066	0.05392928747440072	0.02115778317237014
0.01318596290841225	0.006901767143440545	-0.02461978537559096	0.0339049974665133
0.01823778107555129	0.01806150255184343	-0.07117338266707347	0.04902107136258186
0.01238015727076845	0.001733858186256694	-0.04945003275582404	0.006310917607014198
0.006647131900496418	-0.01003145989065816	0.00767386535589254	-0.04106655550488546
-0.001635824577781643	-0.007627643388563398	-0.003678782871475767	-0.04701008223438892
0.008231578607072288	0.01003007390794375	-0.05801649907016427	-0.0453262846701398
-0.008941630241399007	-0.001801571025206065	-0.03770721196313275	-0.07293469367204145
-0.008303132814017128	-0.0004424646735587031	-0.02018828773535326	0.02648474950909779
-0.001539732355891899	0.00757059098768171	0.02337941916099626	0.01176887562105926
0.008316704618905275	0.01595521515632688	-0.01935996467055971	0.0005663723496261582
0.002868457868667795	0.01976886736967615	-0.1061453059666521	-0.01306556064075315
0.01250333719083898	0.01914842819366316	-0.1159465443975638	-0.0002629174317854043
0.01086133058728905	0.007912854994988614	-0.04807225480193991	-7.860957872883817e-07
0.002121785644258104	0.01916058383321271	0.06719089029247718	-0.007483825807295698
0.004453214972587435	0.02216362890284504	0.1325156630266564	4.300219910870272e-06
0.005326441609313706	0.001587880621488582	0.1526029034005007	0.02568188932582583
0.002137648612387712	-0.005971798913117323	0.1683682738056853	0.03941229988719879
-0.003780523156514636	-0.008662891838470721	0.1713339321010122	0.03516319176482282
-0.007731840547634023	0.003102881408213962	0.06201632473167455	0.03558143216522731
-0.003036629433227103	0.008145520537861765	-0.0244626045222128	0.02964647482310863
-0.005207364941002968	-0.005722920953286493	-0.02749465654574749	0.02615820463421445
-0.004837557116525737	-0.01053833200352402	-0.02816776917861137	0.01484607204897052
-0.002294956055688125	-0.007122696681753643	-0.0213228283479177	-0.003973497034775562
-0.002031792458858118	-0.01267372381413724	-0.01592987554367347	-0.01401969806763355
-0.00504473362373524	-0.01580385021905613	0.01532374681015397	0.01198027907159045
-0.00121526276565432	-0.01384423753153339	-0.01561723803661527	0.01151838942396025
-0.006657049566293387	-0.01586429146910046	-0.05846454043771429	-0.004188446154295943
0.0009133233030002757	-0.004689031642987948	-0.06610028680819219	-0.01447892846270714
-0.002706556600593382	0.0001582862099748934	-0.06157905678605321	-0.01554826476261152
-0.005593534281339756	-0.004462503041634433	-0.05399446387800944	-0.02579173299376703
-0.002106841049267256	-0.005947858445609807	-0.006237653174780884	-0.02951086871717461
0.004539575987578749	-0.0007343443923701963	0.008180360029189811	-0.05283279453216068
0.004690343511471651	-0.006855107236449727	0.01697748140243241	-0.05459494544528196
0.01101158041428965	-0.01252724798659869	-0.009519053640823566	-0.03946124461439366
0.01457841646671985	-0.006387544188237644	-0.01364695978617837	-0.04100595240727679
0.01419840731197017	-0.003867239963574124	-0.008494230368942906	-0.03608415394978113
0.01249774761817097	-0.002807487813640244	-0.008346481946746432	0.02349900309998674
0.01244670846497269	0.002442674155476169	-0.02124208515540069	0.1069885935912435
0.01814896335936778	0.00445572875978545	-0.007497893672069615	0.02243781399442309
0.02698115828097076	-0.007563962769077122	0.01900083767128967	0.006732070157597211
0.02795189950266891	-0.006667609836659791	0.02437271700619153	0.04444461828676038
0.02222027598804023	0.002799700783169238	-0.01793537638254072	0.07585241917044765
0.01321619178357081	-0.003502259289224876	-0.02336916154908434	0.08838312309503567
0.0007895594115809837	-0.01637474326877229	-0.01432042792875698	0.1074571909106476
-0.0006808863708756285	-0.01373514474927696	0.0006039372865263824	0.05899436806360227
-0.005058904326405062	-0.004728369245569243	-0.02165774031379028	-0.03073736773526207
-0.06887614216837692	0.02025126404609728	-0.03541615592517243	-0.06238248118311868
-0.06651854107405904	0.02379387087230618	-0.001259370580288655	-0.08435068981412691
-0.02384393117591526	0.01369906269520386	0.01065824999546701	-0.1145308752329198
-0.03376930830116479	-0.003286763448450694	-0.0003711455137806902	-0.1066313161166486
-0.008868023696369593	-0.002993530416978633	-0.0363670057674793	-0.1224669236857592
0.001977606658141634	0.00639079178221013	-0.05356807773154652	-0.09290026584323607
-0.0144417691215782	-0.006734752858792076	0.0184282788275864	-0.08145744139901483
-0.007702324660742291	-0.005084144819172107	-0.0003926923822061838	-0.04229621558337723
-0.009916881303657726	-0.003136299258793444	-0.02870871113301328	-0.006368865614141868
-0.001442241679358244	-0.004034597983072903	0.01272754071621462	0.0373637031342294
-0.005767708736335984	-0.001374286160529571	0.0857855639094349	0.06611586889138429
-0.04720127034306462	0.002143163873140225	0.1183242151713723	0.1272742811592984
-0.04637385093768079	-0.00397442146970161	0.0623938134820657	0.06050924141260308
-0.02010463578697259	-0.02097167232334164	4.850034727761334e-05	0.01732502875784003
0.01566268959380575	-0.0184775846651686	-0.03250373623868109	0.02540780842723839
0.01994211169760736	-0.009193538826236535	-0.04108419955440547	-0.006400821930439676
0.0114068903699313	-0.008504853597133774	-0.03117560501793258	-0.03203594579933834
0.007709687903701952	-0.0169730357490686	-0.008657794889980209	0.008931574915337146
0.004597974091457339	-0.01396021106587354	0.01807797452221907	0.01238660463232798
0.01147161558248651	-0.002573195177863091	-0.01482753250105156	-0.008021840395405915
0.01533455838032113	0.008827508551622527	-0.02179801747960796	-0.0107653601728982
0.02211962021033697	0.009058740724738378	-0.009933175658917465	-0.02330713735885489
0.016455314308842	0.002221285643194044	-0.007986001234194805	-0.02874523294669709
0.006810267265602862	-0.001070096476013261	0.01110908885248848	-0.0180790453152294
-0.01128341704700524	0.007502597632516005	-0.05064704566313134	0.0162302466472786
0.005490402584608922	0.007631500360599844	-0.0512262491068084	0.07559698544104579
0.0003427903875379552	-0.001699883425097093	-0.02143689320011866	0.0815885637930944
0.01312775456665302	0.004621862686082468	-0.02546696855219129	-0.004201171606233931
-0.003522202572627977	0.01188415856080544	0.002725338453468886	-0.03642631381767997
-0.008406911669439972	0.01524949082040668	0.1596726059552224	-0.04820405226194881
-0.0139899766826843	0.004277775837935837	0.1457837438432734	-0.03513324482745957
-0.002048790411408271	0.0008416200380193775	0.0231289337345357	-0.01217348363917619
0.01390131155411314	0.01878735994301411	0.007041565052259318	-0.004908854125774487
0.01989352531316887	0.02065294637718374	-0.006502422173577511	0.009042775152898953
0.017808241165782	0.008630240933884981	0.01496135095445902	0.02465413470272933
0.01503505670875636	0.001731031674112741	0.03614008317849326	0.02356110719280095
0.01758099618553337	-0.00620670688482098	0.01850645094911563	0.0164905452250565
0.01578329163940927	-0.01322510021296977	0.02261160966805712	-0.02155274895276943
0.01419969191340281	-0.01831844838284782	0.0235775409454592	-0.003614444103950462
0.02044184962792393	-0.006576449814081921	-0.00013483742452615	0.07213615644113404
0.02478526577136517	0.009713937544490287	-0.02244264499096391	0.004510133670416166
0.01926394551997754	0.02855099673552645	-0.0235412137332062	-0.007184099770732011
0.01473800623693009	0.01183232561909127	0.01129548391754196	-0.003490413423042469
0.009015095642873974	-0.001860736522591536	0.02854012642176281	-0.01435957109960045
0.01621090536067196	0.002591071499651426	0.04335093908256805	-0.01406863925744888
0.02142776186270435	0.01433007214853277	0.02465110108394533	-0.01398926728500043
0.005449751074663035	0.007051687338101791	0.009113202487532031	0.003984995171752978
0.02545608937959313	0.009032563295401782	-0.005661945915705055	0.004236220828662735
0.02503157330145725	0.01640535537313739	-0.04308422496503781	0.001540312827931985
0.004698036670658481	0.008566371398080209	-0.09400056312613704	0.04251178223751267
0.0008902873117535519	-0.01651089577313464	-0.06874124908700809	0.07981457868684168
-0.001467786148472696	-0.02697210019217414	-0.03454501197984499	0.06091761388347353
-0.000906479573856744	-0.02096574167223972	-0.03323009767446891	0.02690202390852151
-0.005169000440928903	-0.02191076506219477	-0.04464578954303672	-0.04681826472298518
-0.002312619020116788	-0.007407532608901098	-0.06865723720926636	-0.0812654095758414
-0.0001350690803148396	0.03339229369982913	-0.07771103516665308	-0.07414814772211557
0.00315702115275407	0.0553732402801281	-0.05935770477461989	-0.03812498736987499
0.005262497282398983	0.04454155162079562	-0.0388827303909745	-0.03053825544728435
-0.008365417680921517	0.01179960833827635	-0.02760853260495394	-0.02095869970275711
-0.01368999610396108	-0.009316039741411595	0.025758954791759	-0.01425630758592672
-0.01702242850511324	-0.01386316935099446	0.05981944213133972	-0.0004270076020845574
-0.01189176045465666	-0.0291785424902711	0.1037646347432984	-0.01864833339779562
-0.01231464891733448	-0.0307649931216634	0.04414235257747127	-0.02064197097946985
-0.0008449411222463764	-0.01489692264417532	0.03706338288405522	0.07399055710588712
-0.006994227261449468	-0.01763859691066128	0.07786635291114384	0.06037619834790111
-0.01858489273502612	-0.01740790466540838	0.05503375588697054	0.05804135708473084
-0.02836760512525799	-0.006823109376872648	0.001576786042676191	0.06321718755371925
-0.01995487894814461	0.01382401207209839	-0.02892745330468097	0.03417591252839128
-0.01685015204293356	0.008886146141097451	-0.04666091365963616	0.01166569537688261
-0.0146909877728645	0.006144265212119804	-0.0318062743001501	-0.02979069646017365
-0.02098043548253266	-0.01827311844339867	0.002102769885777039	-0.02179119489573462
-0.02233326544583068	-0.004843501790359765	0.01162406121676964	-0.0004216531136112898
-0.02208488210964361	-0.00640930667815356	-0.01587125164242354	0.01241203733540696
-0.02196704126940211	-0.01647826372371398	-0.03794254394524198	-0.01081144071623902
-0.01757528565225418	-0.02325888104528955	-0.04396985495875821	-0.005927807417423868
-0.01391993131339786	-0.01566780116569388	-0.06327577654158904	0.005747425425622207
-0.009381990799134132	-0.0170372827230788	-0.04973736727755017	0.008054932476247778
-0.02154481561984575	-0.03074308571439156	-0.0111690965142455	-0.006707016128979005
-0.01605316602834033	-0.01237191373385738	0.007681935616214856	-0.01913131410906487
-0.003711320428312585	0.001047381872359661	-0.002207939817785324	-0.01712919886838459
0.009973427881095748	0.03203705600190826	-0.01575501051415185	-0.02216924614593458
0.01240871083168888	0.03209035012044319	-0.01393191235550548	-0.01040060956540865
0.02711066229920156	0.0198813332468416	0.00860059178684877	0.002910769498769396
0.02978414375453176	0.008184754259854314	0.02867068076928657	-0.003084792293523429
0.02130119107277851	0.009425053774204205	0.07923607996864276	-0.004269875331291932
0.001404870239856379	0.007495200325413641	0.1778074290868702	0.0255206143054524
-0.004931309880617124	0.007920610533682789	0.1576709355339457	0.04846700897725355
0.02082807905593423	0.001833213125718616	0.09310569268737888	-0.01837933847504188
0.009009167217243786	-0.005011932019210403	0.03574415626625767	-0.02877435991352841
-0.01176583193267868	-0.003377292714632561	0.02281699318622076	-0.02452444297844007
0.01372994582773657	-0.004522513980281415	-0.005123178962970983	-0.0168646017572661
0.00458775717934294	-0.0006780590180216987	-0.0379034192878739	0.00998494465270958
-0.008838848167794936	-0.003055443540932126	0.001892232434048159	0.02219656562635129
0.009227069817285462	-0.007397975191156414	-0.02329457100761572	5.262548108040635e-05
-0.002951664546508657	-0.007645586871549049	-0.06219083732149628	-0.02728056674740082
-0.05372217567182586	-0.008813885974255489	-0.04215461144578609	-0.01273875976105769
-0.05380756101546298	0.005078072423814597	-0.05129846611581792	-0.01737630282141303
-0.02427528516920437	0.01464609831891387	-0.0259251616344454	-0.02746538779541632
-0.01059881470804153	0.01745032429517248	-0.03446322470465223	-0.02475870872703762
-0.01668234011753217	0.009017267654408455	-0.02698267314774835	-0.03004116324840501
-0.02354388992153919	0.001837695835529847	-0.0375546691548119	-0.03212387153363894
-0.03882907653327337	0.001936211652974225	-0.04573828130314127	0.01496770327595593
-0.03696094992138441	0.0001158777980253325	-0.0311872323455219	0.06124719638087668
-0.01490584507053728	-0.01010542006886086	-0.03458737613775997	-0.03107627730403143
-0.00320261184840066	-0.01016373229068131	0.01269738505336027	-0.03500476661454191
-0.004535738482691831	-0.01024957353271135	0.004113037893935577	-0.03538307070394282
-0.01448814255184434	-0.001559964314355073	-0.03543868689495627	-0.04374740515235442
-0.003033956303340755	0.000506046466088761	-0.008605003113189966	0.03821002307326522
0.0154864647319664	0.01894674255907977	0.01877761662080215	0.09703281333527587
0.03229675116292822	0.02796323203485815	0.028256719633625	0.07516358330424255
0.03813390763507596	0.02170744339621527	0.02192193526268798	0.05788321099087237
0.02707421621380496	0.0189482702583534	0.009681457179538718	0.06225409288766374
0.01721078953327671	0.008212304215345207	0.01854990576186764	0.1082643750093018
0.02085298860364887	0.01250321220346382	-0.01466200220613573	0.1009302556951569
0.0274490669148993	0.008306763244814342	-0.04453155063257429	0.03127994240472283
0.02637571412460988	0.008982681713225707	-0.03219396889931562	-0.007109756220560754
0.03294209760518212	0.00568855439089416	-0.01843944017943303	-0.07780524371888725
0.03136220783118008	-0.0001669280043657007	0.02498740932402309	-0.1274694204579013
0.02750117933790904	-0.002815671474749631	0.02527173225995672	-0.09765620663035621
0.02553643377965088	-0.008328267450680023	-0.008452325274592568	-0.0790933925730619
0.02359960048490534	-0.01243319307122523	-0.03729840961853976	-0.08754124719484231
0.01663538931186473	-0.02675973168649768	-0.03847977176379266	-0.03333415982911928
0.00667193616462909	-0.03293739748483584	-0.0412918326232932	-0.02345773930485696
0.02138821506230995	-0.02382553050807536	-0.05792701112285967	0.04278215881025533
0.02259487731379399	-0.02946010043273665	-0.02364324385218642	-0.0005243535505778619
0.01465914413760071	-0.02842606566711887	0.00681288615662686	-0.05348470461894468
0.007565944263801164	-0.03319639966654648	-0.001798167944383868	-0.01460947071538659
0.00265692341808995	-0.02040910767403627	0.07890463624173037	0.04021861971266404
0.01556177128365353	0.009564266009529329	0.06389695678367013	0.0117071001645357
0.02602161802312172	0.02829555779601923	0.02876511491111633	0.01193323305425369
0.02272958135733237	0.01813944628010812	0.0680074345204742	0.05611033711646802
0.009200940718897509	0.02037992172828714	0.05834484737855333	0.07505700679377722
0.00511517645741452	0.0264604830370426	0.0378591045940412	0.0873202827607534
0.009156582676852151	0.02709122519649323	0.01577733847412532	0.04859020754925102
0.01730381391312913	0.02716691652862219	0.006632592333677724	0.01567824118020236
0.0174073947978068	0.01627542243321037	-0.01321933069311919	-0.03103179695376836
0.004545903061768377	-0.003592385254486724	-0.06272393380586666	-0.09105901712179253
-0.005313223936888019	-0.006303180182304812	-0.07682227689095464	-0.1131332007947293
-0.006805574429523406	-0.004306223655994311	-0.1000326779613678	-0.05477204025165864
-0.007843523276802749	-0.005659826687779894	-0.04739959451141546	0.003771583825049858
-0.008396844506475447	-0.005938649024656397	0.03927265991472028	0.03838782981275557
-0.02764884843632015	-0.005491308168231989	0.170069989629994	0.03797212243728471
-0.04208088060690712	-0.01113477119770364	0.1470811001728371	0.003592985105832144
-0.04346287811828596	-0.01998479771865786	0.09004358226007644	-0.02669771823188926
-0.02458300437721392	-0.02410046713481544	0.0472867891625876	-0.03587591412581446
-0.02110768785954008	-0.006043750002652132	-0.001583413674387513	-0.01873237852236828
-0.01879517887913734	-0.001693176966390107	-0.0234101251522341	-0.02123107776339212
-0.01100292895796767	0.007195016888417838	-0.04201835476667606	0.03689061634635118
-0.006013762436051344	0.003861311267740314	-0.01436419524065488	0.06577575318846952
-0.001366652962035606	-0.00646273169772655	-0.006567484411040311	0.001459503559835395
0.005966231205264289	-0.009144884385841236	-0.003333357553850002	0.008803771388559275
0.00747731284047666	-0.007266874837353751	-0.02823933473143983	-7.092840780101414e-05
0.006196646494761141	-0.01598092560666439	-0.0296447133531713	0.005169638516516829
-0.008247837648499262	-0.01873832405325336	-0.04565555663834102	0.001574217980941693
-0.006319839468214007	-0.02094965610152265	-0.01213918894002199	0.002483559256175966
-0.008426590648047974	-0.003222423991045552	-0.02085615619091493	0.0008202076825273444
0.008576282337477016	0.007374209919839938	0.008216490122676313	-0.0001021037728842387
0.01788639214241103	0.03103713040772977	0.03394015339999128	0.006019110238805881
0.01109189356072766	0.04892811891475715	0.01724503029990098	0.01537223211876922
0.007415459147897539	0.03109543363879931	0.03500270556306868	0.006672869430947429
0.006475594183174931	0.005873223802856806	-0.001882381459065662	-0.009574764120827793
-0.008750848491569721	-0.006603244957212008	-0.005937735707189026	-0.02046675523131555
-0.011402145732531	-0.003685802922937831	0.01391674238399758	-0.01904931266979436
-0.01411422679630105	0.002453819560175159	-0.004573568397626671	0.0347613450924452
-0.001452379617063898	0.01094880011638768	-0.03519271404296298	0.08760401707482959
-0.02819133598972805	0.009307733260326325	-0.04033044091439001	0.07714116171428792
-0.0360557405118645	0.005971102479668882	-0.02894960063829052	0.04100953668984381
-0.01871965173042229	0.006479793058794366	-0.0174209914737474	-0.03308612105260378
-0.03974195329408232	-0.003201456797044823	0.01018795946434215	-0.1238984250955694
-0.0328682009489554	-0.002781533909115525	-0.003676017543250099	-0.1174319779055159
-0.01312454143793326	0.006569971242281883	-0.01883367693315626	-0.08031071862597371
-0.01371082470214252	0.02644215772370466	-0.05019743825057865	-0.05656011438745658
-0.02862076803462974	0.0223735029560533	-0.0272504719211196	-0.03135612493397049
-0.01445013393740845	0.001512622714647194	0.00512984328081756	-0.01225154179070457
0.007327398494490702	-0.01014916528006076	0.003452581278692085	0.002825115604741319
0.009806958155729358	-0.0114410858878875	-0.01630660631222154	0.02418071630362876
0.01125065121509471	-0.01181313366790692	-0.002587688218746856	0.1369709962311351
-6.196078489383115e-05	-0.01740411368669563	0.008175633419925001	0.09000234826767065
-0.0007984068156954738	-0.01492172596449323	-0.01429858428926532	0.03266570753101728
0.003899167359213433	-0.0143749801868965	-0.02835042272560776	0.03163123386567603
-0.004215786367571238	-0.007465698199092524	-0.05763015306272735	0.01930367474723182
0.003493811916225411	-0.001773751119042385	-0.04077544728195098	0.01723028225007956
0.001045636316948733	0.0008825594393823237	-0.002194755672376715	0.0005254743043952364
-0.01525537256929342	-0.003580489944098065	0.0005106640701166957	-0.03955139763512607
-0.004411645967491079	-0.008249612110874981	0.01884306104103804	-0.02017295191111331
-0.009080977883273986	-0.005538889987041785	-0.008360133322220395	-0.03116161404385304
-0.01448481225188351	-0.006526412140923886	0.0192150035361271	-0.02984367330499208
-0.02094801580648311	-0.003779468468663221	0.03311449407877043	0.006059104231589581
0.006805881782750123	-0.002325490171022421	-0.003189622484328831	0.06745473003504981
0.02257954821905299	-0.01337493952671176	0.0153712534170192	0.09761135091436447
0.0297917693625386	-0.01422357591943189	0.15380414725327	0.04405869090157308
0.04621361359173339	-0.02283957193700133	0.1176188274552326	0.02911346295650686
0.02361840246336303	-0.02045198860135996	0.0494310140403389	0.02194774405194174
0.02443290848895296	-0.02038255484370595	-0.002369154702620079	-0.01307307715026539
0.02823546454693511	-0.01234543644306669	-0.05281433304879569	-0.002524347993099341
0.01962656107359019	0.0005841774034710436	-0.07660623808460182	-0.08037543989158083
0.0257196452018864	0.01861917264004662	-0.1013504407100592	0.1329226035838106
0.01398111264097274	0.05469952077270911	-0.02788026745850159	0.09489562950614394
-0.001713244716580991	0.03203464955472361	0.04975844899947001	-0.03384412787701634
-0.03568929455022893	0.003107656887214269	0.05323758787894031	-0.04593768958590701
-0.02773399036251278	0.002443855677862856	0.06453729624372118	-0.04509011494350472
-0.01591790397332422	0.00913016499033651	0.1356718993575785	-0.04157054364195259
-0.01436171002014874	0.003891933901839221	0.05740666802767758	-0.07090937552118792
-0.005060561893344907	0.005181762238601776	0.0183582378524072	-0.03806066600522674
0.01471529924913534	0.02847396384113031	-0.01995246101753666	-0.00233582611949141
0.009346149266992317	0.00993015151110351	-0.07207682215656236	-0.02494825585778324
0.01365988200993009	0.006783089326212457	-0.06925235598071695	-0.02065094741874935
0.01124992958061205	-0.008386692274206586	-0.05501642005753885	-0.005538727915511458
0.01295173717717606	-0.009101534942867489	-0.04382968408289826	-0.03058155305667923
0.0235397543924538	-0.009037008782394844	-0.05782695218550605	-0.04379114368279075
0.04341199024333991	-0.009941367643910601	-0.06577522258097393	-0.03875505881468849
0.04420510173797108	-0.02016411467749141	-0.01434090301199433	-0.02273681039988009
0.03828063749164779	-0.02560554217903782	0.005301694486988805	-0.03286534595051893
0.02333886791062972	-0.02094121553612149	0.00591610639974085	0.0507778353626754
-0.007845204667927871	-0.01966843781865579	0.01000598417842961	0.1082255389849127
-0.01378449485938566	0.003741999201229646	0.03657961412309658	0.08250201093597802
-0.03488505872975454	0.005425510778997709	0.04924396877141354	-0.01895513863350214
-0.04232546228235688	0.00293212472338449	0.04770474310897312	0.003488007096473047
-0.04193945184690956	0.0265754711689842	0.03112120199207789	-0.007493611405005576
-0.03537627942342141	0.03140800661658931	-0.01059190947555497	-0.06647302410531022
-0.01198689517412276	0.03266079734283319	-0.02259498977446975	-0.05197935577903265
0.001821054227435056	0.02746241302168343	-0.03184104794087377	-0.0196185753878637
0.01192570823027805	0.01417954671938346	-0.01613429355708836	-0.01774711474293721
0.01029851384650659	0.01020043247692101	-0.00238192714869888	-0.01409145849079643
0.01125570277335704	0.001065204681277442	-0.01024814537008901	0.04578969122398854
0.0108922473725598	0.00246071472837746	0.009987006882581285	0.04752901268361035
0.01664382274560333	-0.002026663652909132	0.004545426198018152	-0.001263734119509847
0.01398378498385714	-0.001656305693416925	-0.01248649690930144	-0.03471509364569293
0.003795488481362633	-0.005235336907506221	-0.01646652937906542	-0.07518022181932825
0.001032543188602426	0.01506494012048901	-0.02334565673926624	-0.09115054662688922
-0.01304973065142181	0.005186234147006148	-0.02970805715343588	-0.07859827398845615
-0.005202088413218546	-0.01854196419044822	-0.04424448091111182	-0.03859112031009394
0.007905127854271235	-0.01984541287622492	-0.05987672282244211	-0.03061269087934632
0.01329864909853021	-0.01256421451024778	-0.0484970118800892	-0.0331691095463298
0.0201694072489508	-0.008106787225376746	-0.008964625528862298	-0.008324182234887517
0.01372702314576986	-0.003772242533526558	-0.01508997164125515	0.03614840033367471
0.004548953285207792	-0.01349131914688464	0.0007882585195489828	0.03671045221427895
-0.03032065153855831	-0.01181975949190026	0.04286916488095945	0.01926374186022702
-0.03936762050318306	-0.008381194486007538	0.03759477449569948	0.03332047792950838
-0.02261835022011004	-0.008897831598106712	0.05107837804435484	0.05762532098536075
0.004519816501594095	-0.009999332082514193	0.02326746136638795	0.05720895226012038
0.01092726312293347	-0.01566718687363448	0.04083331899551249	0.0584928878170347
0.02709303751502182	-0.002485758932868877	0.0843716057654828	0.03151811158633814
0.01813300878325385	-0.001922904472124812	0.04886685631428724	0.01027731727861055
0.0110237387167454	-3.111517874660193e-06	0.02206142282576429	-0.05032332654138887
0.002510778977358048	-0.0006334994088173509	-0.01208240485664857	-0.04500165738299593
-0.02008285845036357	0.003165146421815918	-0.0469714713531241	-0.02334189194725422
-0.0174424515876011	0.01243528668867715	-0.05738626866359408	-0.004888795100785192
0.0009639059764292788	0.02348396096141115	-0.0506060733695425	0.02877689868123148
0.00339521555335102	0.009128907802012406	-0.03206608252402603	0.0177886759598087
-0.01274964810246836	0.01012081652876979	-0.001476778805037724	0.00926911667687102
-0.02600777635054012	0.0005962104694487824	0.03047236656040532	0.02681882932368648
-0.03161643189933059	-0.004469403900318926	0.0612291035384292	0.07728869335906342
-0.01016867801766359	0.003825705492795756	0.02786511467714782	0.03707069119038534
-0.002723756387307168	-0.003427080328745291	0.00403386536614296	-0.01675982412992468
-0.003338214755180425	-0.004099450165778248	0.08755880980862708	0.05499910184925995
0.0133035422955106	0.01778585573270361	0.05502795198724748	0.02120938815561068
0.01032207674217522	0.00974840255762287	0.03422736514675457	-0.0188141004744049
0.002381068306443982	-0.001964283756210299	0.00392914010701698	-0.08213743809949151
0.007854987943074545	-0.007798913926912373	-0.0100709945067947	-0.05949469850934891
0.003286889401547672	-0.01659795497939403	0.01975773403223949	-0.021188678868725
0.003995319935124294	-0.01881562284571937	0.04975451297024162	0.009563486197731131
0.009024237901013723	-0.02740067234920815	-0.05566123002320216	0.03681046164838206
0.01515152893377028	-0.01639040424099827	-0.02252071858701416	0.08713766924133941
0.01489964663820248	-0.01216528972862769	-0.01775349968720813	0.003626654193574622
0.01441121837555235	-0.01633292702007368	-0.01461744997457009	-0.03905860109884129
0.02449931558146824	-0.01119369769696207	0.004331271170764529	-0.03126708504928823
0.01731376909038157	-0.007009034465220267	-0.02761680749696057	-0.02621538756321146
0.007973972798333204	-0.00190638248836475	-0.04483623786590058	0.03775648565335285
-0.002812064475275188	0.001276555954881427	-0.02841717206051189	0.175525889644935
-0.03774453919874478	-0.005504650801128289	-0.03715086903091833	0.07723616488644798
-0.05677892382313238	-0.006685062896196362	-0.03977777588785725	0.04300931788503376
-0.0368819731131508	-0.003656585252911182	0.009433855881556034	0.02936183730948283
-0.04758523103895385	0.01422030867476518	0.05488858168819271	0.001239260495513388
-0.06341345957244177	0.02687374875629979	0.04571265842815448	0.02057632556451949
-0.03179178312140095	0.04448048127769922	0.01223283628242685	0.03153011640080164
-0.01290362745633624	0.05223998764716153	0.02883871690968886	0.0312936436295212
-0.01106593488022776	0.03346487856299769	-0.01634170170007835	-0.008040401822135907
-0.01615128025378862	0.002763996411542619	-0.02853071500310504	-0.032132986563381
-0.005282799719696507	-0.005149819736011714	-0.03327301539949942	-0.092417314469236
0.003391698133926759	0.00575470730343883	-0.03052904066523589	-0.08613496500636572
0.01257413975835076	0.001505341204522794	-0.03460446464913408	-0.04244731361671927
0.01428907039935589	-0.01696361987159179	-0.08065033048825034	-0.001913730610857789
0.01124019033876393	-0.006696388567185762	-0.1203571215083689	0.004602205250954346
0.0230322956875458	-0.01073973722712518	-0.06253979604308432	-0.00684729248840433
0.004849356607828338	-0.009458870498456597	-0.04543155150780601	-0.01950884428073511
0.01410256663004088	-0.003305284752906623	0.007937331616027046	-0.01659532715544989
0.02883893858296851	0.01835167805833174	0.0309443837531122	-0.02501199799447399
0.02907736288344867	0.0324219963720145	0.00786391360666178	-0.01621610859120186
0.02643837670488965	0.03174226352353609	0.0209396071661424	-0.001513419729462965
0.030056303485191	0.01730902166112588	-0.007552197783348895	-0.002371331139340547
0.02327304583180389	-0.00468140811422645	0.002442741787161706	-0.01159279560736598
0.01247116167758151	-0.007876769601332417	0.04770265452544407	-0.02410553987776677
0.01530829961960909	-0.007713291544754816	0.1270182299769519	-0.02451698935561785
0.0170679957098951	-0.01735748331106304	0.08332929178478664	-0.02978499610421383
0.007339169722495803	-0.01659076908494093	0.02259426636297271	-0.04164616904659933
0.01711395684969915	-0.007678838726390379	-0.001264281202912804	-0.02644197302348856
0.02493881477827213	-0.001924074341776515	-0.01515964517855287	0.03183599132415724
0.02609547286469313	-0.01413130551803841	-0.002550953435033557	0.06067241666929499
0.02059096329350919	-0.0188292902357655	0.06463646796465265	0.02639733317060488
0.006014888081389022	-0.02316007678310783	0.08595616642244135	0.0006789897587940822
0.0008704127296536832	-0.02267702095467003	0.04089286905210388	-0.03972135115213742
-0.002282534782471438	-0.02039108023879839	-0.006078990565728904	-0.04017773971249671
0.00323497403808168	-0.02448887877197755	-0.01400774420101548	-0.02480534954678243
-0.003901684267744122	-0.01593424489064375	-0.04728666074809447	0.02286418962633278
-0.03688637215822758	-0.01138982009313014	-0.08311961433429674	0.01109718124348618
-0.04266237421310545	8.399555040068077e-05	-0.011435640270854	-0.01193804218902186
-0.02900534262721544	-0.005968919114006752	0.008654285703972954	-0.04447530774692206
-0.03656659294261991	-0.003253628358865025	0.07263978136317248	-0.07681703692118894
-0.02541545247623896	0.01441835762044998	0.02715236206424875	-0.1106064028376313
-0.01952499888888766	0.0126540813422819	0.002256094327303552	-0.03671890885704166
-0.02994144985299596	0.01636412860349676	-0.02882039376099086	0.06908911293050332
-0.02651068577766395	0.01333092825550356	-0.0492137131124728	0.02835603566430308
-0.01241388588282838	0.01287503524220325	-0.05767433553238092	0.01577081720338637
0.002102857037342453	0.01943647946665525	-0.04065646698405349	0.05313014275665618
0.01915186278485193	0.0274721955539576	-0.0463600732785835	0.088210174017493
0.02915295049080827	0.009704787252132641	0.01181083328314365	0.06242671478494541
0.02333710776726429	-0.006601380909267128	0.06696701173706676	-0.04217938061006998
0.01513746646387504	-0.01751000730049071	0.02633494760954115	-0.06763117957550278
0.03152236775845536	-0.005540349091633443	0.03240351873756926	-0.06296430938404837
0.03510212579139566	0.009201632687641665	-0.02140597471471686	-0.01714048934384277
-0.007331020232651461	0.01202747631329535	-0.0466929960250856	0.006971440748873867
-0.01151144003588577	0.004938888864826422	-0.02531831208795935	0.04666566524758941
-0.01239593700734984	-0.001124154271403569	0.009249256092716209	-0.001336739161580112
-0.008979024044265182	-0.002268187219584147	-0.009683348544390026	-0.0001181419164374208
0.009590835987231943	-0.01598497694111039	-0.01727224776312428	-0.009726244306527304
0.019970938906562	-0.02004709634286096	-0.03123612979808331	-0.01048269081952074
0.02266097177245332	0.001631413847639551	-0.004899962109314517	0.09414977099133331
-0.007615264869834747	0.0206369507519615	0.01236689867924331	0.07626130111238032
-0.01838015358766303	0.04655319331287703	0.03134434064321757	0.00117372527632801
-0.005104744979340112	0.03747153361944185	0.05442025412480078	-0.007689071592293902
-0.01429461540156971	0.01670048953841477	0.00123265909309936	-0.001377786497603155
-0.01729725641104534	0.0005213238134289757	-0.01225979252344783	-0.004335872882921474
-0.00174095694673626	-0.005112582815927677	-0.01665733819786746	0.01816781205725085
-0.01571007880475153	-0.01607954664609185	-0.03262229189497369	0.04185204574043568
-0.01849246037139392	-0.01786561933185758	-0.03159296233949464	0.01075901612570974
-0.002899109357852191	-0.0102769648517501	-3.023772485720357e-06	0.02691297270946699
0.01206159668560502	-0.02258935956527116	0.00400048241241188	0.01526276038735777
0.007971763964360166	-0.02423098956564059	0.03477675026174762	0.01962722881549089
0.004797735504490143	-0.02095614628803381	0.01394056893307958	0.02586328452826202
-0.002086126704859646	-0.01304438608351839	-0.04865278922476898	0.005715667954550629
-0.008714585611953268	-0.01428986465353336	-0.003037108849476818	-0.001817896480310893
-0.03304052418068459	-0.02661814117852191	0.01735993984574406	0.001337043049606998
-0.01791329385606571	-0.02278930422486849	0.0331239663844685	0.02059052355224964
-0.01300930288496323	-0.01385014322659471	0.06666725414709324	-0.009261204582506722
-0.02491064278279032	-0.004495838404764332	0.01543455223837031	-0.04638778424067669
-0.01232603303678098	0.01568260767398973	-0.0007264798133316413	-0.06081290778868427
0.02210286855619444	0.01700812405238181	-0.01932263069906798	-0.02637052215193076
0.03691560265094706	0.02569005029043325	0.01189479477114429	-0.00675768137834808
0.0278829389970025	0.02530556405963174	0.01916315677271386	0.01009700418695313
0.02440916187094877	0.02196097872455531	-0.01820478646434206	0.01231647245428003
0.01658892735842737	0.02288756355534539	-0.07760127481787739	0.01665950899720913
0.01541020511699329	0.01995551993176005	-0.08716103532864933	0.0322604408237496
0.006533400547898784	0.008499735854199905	-0.05821348369488973	0.05016366007751641
-0.003805797498889082	0.003765563135991242	-0.02402880441860319	0.05219896262762768
-0.03107402044682872	-0.004326668053968015	0.06250057083408621	0.04405848425578748
-0.0101028947770675	0.00244527733724627	0.09822402209222758	0.03328164434823728
0.01084464883307687	0.00935682780137592	0.06485087970053136	-0.0330289572121464
0.01097340771340824	0.001074605113030394	0.0634339980354473	-0.1048204448865995
0.01012845064824692	-0.01167265383570051	0.03937386578807826	-0.08223674004216676
0.00624741007758726	-0.003300149856296722	0.04033564245560187	-0.03741260985052719
0.007642088639051436	0.007580336593111622	0.03274508292756165	-0.02911986494898832
0.006430362509105928	0.01320586971153003	-0.04508095217089782	0.002782044931937038
0.000787522193610851	-0.009043777033807775	-0.05595326154103963	0.05156551801641437
-0.003222078998479791	-0.004112861887489353	-0.0180530147650997	0.04128327501948285
-0.02499573808291673	-0.01233425519566359	0.02007250654266752	0.02721154957407061
-0.01664140180473174	-0.01298259882623307	0.0006911012475992126	-0.01208995589183192
-0.002960068887198761	-0.0006025467674366224	0.05791404915983176	-0.08704339348354734
0.01048476497196571	0.01335121663168084	0.04478039107649977	-0.09006196046297721
0.01413827259475073	0.009887070055915777	0.01151532333419248	-0.06100351300913583
0.01687642871502077	0.005560645971447021	-0.03168245279880644	-0.02254589338832644
0.00770872646153813	0.004981495381591199	-0.04138651714668763	-0.004871211471385934
0.005776524150191398	-0.00818841061372866	-0.04499068461904439	-3.696773829125121e-05
0.004636654538455416	-0.008655424935617396	0.006853098444428206	0.004269340725965693
0.006154522387445156	0.003982927390347071	0.01716638510965445	0.00414202417855963
0.005129589747710254	-0.002862935093232897	0.001304193860313698	0.001825549658592843
0.01781230185093314	-0.007031127332603701	-0.009726409375873244	0.004458421405967685
0.01765196277813808	-0.003719583186241923	-0.01605992405796563	0.005162935027030045
-0.0003494024220055066	-0.001207332976955731	0.01226066146014993	0.003254342576825538
-0.01846718899322454	-0.001491228025576071	-0.006660735895079109	0.005334818203722308
-0.01772892058591061	-0.003101949455668176	-0.0236264133973485	-0.005166419901259349
-0.001223066326436718	-0.01619028514270756	-0.02450012511182503	-0.03879248459514106
0.003982633610331601	-0.006093325899876055	-0.0274153456441987	-0.05465381060493913
0.006090921149406253	-0.01619554819681081	-0.02026585511913723	-0.01740520310840638
-0.006236048325389473	-0.03213664506180205	0.006303251306992664	0.07829570818677754
-0.009432055817833856	-0.02899963276877584	0.008131284620390923	0.0856827451823184
-0.01124993683239378	-0.02665049650706567	-0.002542666826025752	0.06964194687536997
-0.00716829284911536	-0.0175195567451463	-0.008313962851019811	0.1198814898477544
-0.00985315299613093	-0.009143419266825315	-0.005603755958516741	0.08328770006908341
-0.01113619856921898	-0.01092674628373103	-0.02188455958042746	-0.01269454330281721
-0.01890923698060729	-0.0115540631795861	-0.04525247213862375	-0.003792477930786005
-0.002606121986267427	0.002858533239295279	-0.07365288093654862	-0.02140114094637756
0.004807160336628681	0.01826075691188231	-0.0750920356079243	-0.03478218990203911
0.007814764158604735	0.02273233793235592	-0.09966580375423952	-0.02182973825558007
0.005829044312328269	0.02345797646453972	-0.04784507526669055	0.007239286065724458
0.01381262397719226	0.0315179788691797	0.08262116830867702	0.0158435712802068
0.015560567769429	0.03921931710582641	0.08781753838562735	0.01800781376568976
0.01875216126894413	0.02839013763376761	0.02273975588805782	0.0450614365637781
0.01332959412579024	0.0232792116917088	-0.004652486163132919	0.00967700499692546
0.004393431348984986	0.01774269691814303	0.03596880393967943	-0.01208929033524375
-0.005484529196600319	0.01918623984640386	0.03325970920315944	-0.01480629106481217
0.002551139433433	0.01413807136053563	0.002232310395581848	-0.03482744225543524
-0.0003202594475999171	0.008962443716035568	-0.005558170456386327	-0.02615329289191171
-0.02005713869189504	-0.008938293587448179	0.06528003487778242	-0.02971767093200398
-0.02319182728519059	-0.01655326378924629	0.05435040741976321	-0.06316359549345435
-0.006497873282947536	-0.01332274230419219	-0.007753665332068519	-0.04190215586332098
0.002099129767302257	-0.003458057210318053	-0.01956917316482587	-0.01968410748032995
-0.01629309782215854	-0.009389472833525115	-0.02246080217735055	-0.01277878930781502
-0.02472312242972206	-0.005739809045118591	0.05469807343277192	-0.0144237479954591
-0.003829381654125833	-0.01262456133451228	0.06496839694478912	0.1427358924182738
-0.03662768187715718	-0.018630687741317	0.02713312370501492	0.09316440603540321
-0.0195152356372143	-0.01252335412957946	-0.002086614718201353	-0.009753109792959666
-0.002986837132019744	-0.001009448762827759	-0.05983951759443983	-0.04685337583548421
0.003917922030011714	0.0004466620806691875	-0.07109963485010888	-0.01792184542227292
-0.004693990957016518	-0.00466809203524764	-0.02974723009795127	-0.00881413689931853
0.0009061752626167716	0.00463935174459071	-0.05190669588811048	-0.0008736262929235311
0.02398622272478113	0.02065872864788374	-0.0637699928388164	-0.01230515986675523
0.01978703119914545	0.02044849445585664	0.02699838964479605	-0.03206600505742179
-0.0009937931791820641	0.01132218852732246	0.07788011210096848	0.00218134675454055
-0.01503906447603969	-0.0001395680292713843	0.1225539298847182	0.07711137717710646
-0.007866125582767019	-0.0001986794360619955	0.04211637331594103	0.05004125257770963
-0.01536426712614956	-0.001729429167784549	-0.03992486180574201	-0.0113153068321914
-0.01894651333930796	-0.004760413343488964	-0.04727963952559484	-0.03322731793515162
-0.01872713603962002	-0.005996451870165975	-0.0728118336427596	-0.1109495349733822
-0.0249148332543296	-0.004729399923406262	-0.06321168473398445	-0.09457221077457537
-0.03737012690664738	-0.00878363115166363	-0.05796165661604338	-0.0463643279044833
-0.002872759251007142	-0.007550311203168367	0.06962017130791252	-0.0194028847864003
0.01790929759634302	-0.007275661966538775	0.09485777276090253	-0.03208948947875769
0.01471344541633021	-0.01265372427327857	0.0761556476519767	-0.0268385280872305
0.01353155380270996	-0.01551097510887598	0.03592705875521351	-0.0263205247493925
0.01996023841370403	-0.01811048559377725	0.02172705750078426	-0.02131313832687277
0.01693545148793024	-0.006926393430487164	0.02401976000201974	0.006247576796982878
0.001201854880375905	0.01095773209958312	0.00718651565692449	0.01402021757048419
-0.01611961248726258	0.01358338461995951	-0.01742480165170572	-0.007075465342413206
-0.02213628950239654	-0.007401397148685563	-0.007947570830411621	-0.01711664309758731
-0.009592881761330505	-0.01868353840073867	-0.04687343002042984	-0.01081472363966064
0.01858152958669846	-0.008989885571844141	-0.0576593060396793	0.00889511580568497
0.0286300684460791	-0.004169360498987254	-0.04288428796092485	0.05168139674508706
0.02165084416438275	-0.02168075469855962	0.01488499270047984	0.1421969051459749
0.01464208963614818	-0.02578298546924436	0.01574614512479488	0.0712860554822278
0.02518574434750953	-0.000587569958833391	0.00237636194311992	0.02657066107957019
0.02839240995067372	0.0130590149766675	-0.01164619048534377	-0.006022887456301486
0.02710909152800378	0.04970733622143562	0.008528808449944726	0.05969577390103832
0.03097811943778603	0.04876408872803624	0.03247486554529284	0.05790336800962015
0.02659679652554334	0.02118931856820451	0.02103933578319627	0.04789088076763363
0.01565779889948236	0.006122839431723373	0.03283336720791915	0.06357760357035355
0.01170518337392204	0.004550312694305366	0.02777773374024683	0.04395448384894488
-0.001705762799713814	0.004537596049477638	-0.01913451041589131	-0.002796671784532548
0.004634127165575169	0.00438534074186975	-0.04351529691188756	-0.06720823596241782
-0.01077503015067936	0.008799293241052731	-0.04007550837953159	-0.07122908331178719
-0.01126206810010775	0.002114026582699218	-0.03527868316161207	-0.04837418676479506
0.004869035876871186	-0.001132562722410975	-0.03161093762896013	-0.02331974749276886
-0.005828962600183952	0.0004127690266719429	-0.0319975401139948	-0.03172231913728082
-0.007820785517132478	0.01226903629623549	-0.03649110621140205	-0.03777879805960089
0.00134873449294801	0.03537906992995756	-0.02978734324622675	-0.02420766897627186
0.01443378607372751	0.03186419700537325	-0.03435024518824038	-0.02234057871435918
0.007091287685457544	0.01424187682412041	-0.03592503902195934	0.00970396537696073
0.0160084946603254	0.006396178957174265	-0.01530055493451422	0.09343687973802464
0.0141955221819493	-0.01128669149651455	0.04150012832339825	0.07891706724634269
0.009658200559895956	-0.02163650186358103	0.04130186763300063	0.04958833006772885
0.01200422760071635	-0.03253946129579594	0.07244429116065533	-0.004618057365325529
0.003511457827384772	-0.04614564932009747	0.1329776688079519	-0.07023237590298984
0.01460882712032922	-0.03695951719062465	0.07909405909989616	-0.1070094334660881
0.02120213354258079	-0.0227508859984328	0.04476546549002731	-0.0829345945340333
0.01153927590683267	-0.01602356231553349	0.01727312008400354	-0.02891280770645143
-0.0029925594690989	-0.01436989046816203	-0.01345502619448644	0.04616048860209089
-0.01623786073741754	-0.007106716232702265	-0.01812063061260788	0.02109499237426044
-0.04357276999322875	-0.004830114451380629	-0.03784147468906395	-0.005206762975591147
-0.03920327991030391	-0.01248736515532878	-0.06192373814302288	-0.0147044128488595
-0.03068509286438474	-0.007654884376953398	-0.04709690435530475	-0.001296967224877768
-0.02263284864784025	-6.802584883243515e-06	-0.002604877758239248	-0.0008241998157468563
-0.03076102154683188	-0.006865922832700486	0.08044838048229458	0.0001363596874480341
-0.05411551583179938	-0.0009067353634570723	0.0711239567742093	0.00147599871495039
-0.02130311116311167	-0.001082163533527769	-0.07224579340213244	-0.04095344203991187
-0.004436577690352991	-0.001575098526308326	-0.09885253768167572	-0.06918977322979301
-0.01592116676564674	-0.02445448901076202	-0.02266560735813702	-0.02036700443956311
-0.0113847989164243	-0.01913151812523784	0.01045986747160544	0.03357611514175218
-0.007697383093020817	-0.005508744174201574	0.09429310340894992	0.109231725059031
-0.001217255603449753	0.003748566693183306	0.07929169526831734	0.1869450020176406
0.007326293182042375	0.01133556945406301	0.0246254229797012	0.09894851216835
0.008018390826907463	0.01324069467277736	-0.0298362597064414	0.01089142146285005
0.01504512402208547	0.0155676965628889	-0.04266114072891055	-0.01724986322423962
0.00941727089480918	0.02167201531503656	-0.06669604259949631	-0.06216021098343103
0.00703134629009514	0.02189125320061501	-0.03872815477554371	-0.05273867548427549
0.02369668269083048	0.0284330488692968	-0.02046127183374283	-0.04367701827450456
0.03971007318740297	0.04119636587801491	-0.01798625898832903	0.006050225199173472
0.03441532921613288	0.02259448633752021	0.0437177405972584	0.003585690499028701
0.01399474576107836	0.0009025397498237853	0.06766275201233796	-0.010384612888543
0.002885336211622123	0.002274093203515343	0.00754372217849417	-0.001239104375329436
0.01158298752827562	0.002508488405864278	-0.06611948000276474	-0.03751945369901642
0.01575112803184403	0.00447519487627886	-0.05712044731884565	-0.04710064578624011
0.007369411944698994	-0.006303975277322557	-0.03220518624593559	-0.03875979189586154
-0.003322892495654723	-0.01064391231281941	0.006631807962426996	0.03696092720128613
-0.01343620385340083	-0.002279760801431847	0.01529255354462851	0.02114775724100058
-0.02394765889601273	-0.002768020009656852	0.02438576473974208	0.005787164613569453
-0.02539570988995003	-0.000654689168971558	0.02709646768823054	0.02189512527697278
-0.02418516290990726	-0.004278062704181003	0.02433938069182683	0.0280043727253547
-0.01846340212641562	-0.0007383485815756772	0.01798957248172089	0.008290732897199582
-0.01796609510938594	0.0009438899888741159	0.02192080925495911	-0.01236476335551816
-0.01967277184098045	0.008286684793721863	0.0316507799980506	-0.01182617650336222
-0.001480752125389697	0.002550996757439211	0.04751283686820693	-0.01829342603930934
0.01234389786810971	-0.002191190874608068	-0.03490008469542733	-0.01520720713182071
0.01529674057826008	0.00573316871456587	-0.06025467080044893	-0.0201253465387731
0.02038701907800022	0.008989936778540986	-0.05119938446999064	-0.006773230422972338
-0.022601788219556	0.005381500900685923	-0.07424069416848651	-0.002821187114258649
-0.04422493155319418	0.01104637293675788	-0.0811849769012456	0.004348805110995526
-0.0250332013907041	0.01008857375614211	-0.04194048347304976	-0.008419826774091756
0.008230339619800691	0.003701992794873708	-0.009965954539209065	-0.0180034131796896
0.01836644064669226	-0.006268603701842023	0.03805587832482647	-0.00664869596256209
0.01754873539495894	-0.01218584706432308	0.02076950456374317	-0.005948474779156521
0.00679196236285495	-0.01988659452962587	0.01695644220109583	-0.01273267480386886
0.002502856831545534	-0.01679380015625916	0.009326698353092357	-0.02265973576532479
0.006837819437941282	-0.01372534757103062	0.01371216748395139	-0.02573352307156293
0.004777384646797477	-0.005878805012639778	0.0164895155327832	-0.01730235455395546
0.002832976185708239	0.0003296443472363742	-0.01811039258137087	-0.01274661474160836
-0.001689184894655967	0.003102987180762786	0.02017852860027124	-0.007877287506857684
-0.01383228763928425	0.007395356329942124	-0.01416472702890487	0.02540657898161955
-0.008945120155402756	0.01126611262839718	-0.01582036711215164	0.06461346965674503
-0.01629505562547373	0.003123326284073984	-0.01516229745844601	0.04245105027423617
-0.01476815992647736	-0.002239001968642083	-0.008622382299947214	0.00706655129173198
-0.004448182526398073	-0.001783597052910134	-0.01041088750336906	0.004269391340516892
-0.001122780191804717	-3.433283075056235e-05	0.02965909858576509	0.01420472076863502
-0.002280731869509576	0.0003803527042135969	0.07860422334633864	0.01685054510312289
6.812064321968873e-05	0.004205685184376529	0.04490476722055679	0.07843922521355549
-0.00582965469154143	-0.008340378181487119	0.003248671380111763	0.07927670394125545
-0.001033886438212916	-0.01370225433470076	-0.03123700983836183	0.07789896053332468
0.005353838175093591	-0.01857882499171811	-0.009915967444886663	0.04187257626872114
0.01098482362194618	-0.01037522806042669	0.06993648787498608	-0.034558709782499
0.01806127195437621	-0.01166370272314041	0.1047615804867516	-0.04389770577237923
0.01931657182676509	-0.001019935990473906	0.05447604671100081	-0.06867564859102926
0.01788235420198856	0.01586474396640142	0.01285971840600776	-0.08064832114940476
0.01509810768830315	0.02737903940061287	0.0003168328836370903	-0.07360830919801828
0.01512475753287469	0.01169300778970144	-0.03695848192100239	-0.03265921945651353
0.01474780438105169	-0.01757316375656309	-0.04747784835350841	-0.02423797511373618
0.01638323749350939	-0.01456028718954015	-0.04120713265907169	-0.03773050452296407
-0.003331239132915146	-0.01373642436294754	-0.05349877033050548	-0.04568841491673427
-0.003433666774001003	-0.01846781711862937	-0.03958467461081362	-0.03791094798817912
0.01547173771120303	-0.00743833494422495	-0.008722362021059289	-0.04846851322080405
0.03725883738433359	0.007763030306712546	0.02319123387611898	-0.04705466885388798
0.02917659629905048	0.0316379426154469	0.03781366784891314	-0.03810787118269006
0.01546928553450252	0.0523904852379985	0.0365439116126741	0.05022398786454178
0.006901805186327508	0.05157265098913996	0.01699249541692243	0.08035542408428557
0.008377219899167829	0.02310521529394705	-0.03656428958156523	0.04702802101147097
0.003346773199840786	0.001487452779433759	-0.05731125288430915	0.08329078581846314
-0.002497989965062015	-0.01632366072472853	-0.03343139944415931	0.0508520063884559
-0.0170866215127474	-0.02348864094206876	-0.02600914767321041	0.03780341525508691
-0.04352888700189648	-0.03260463365054937	0.01205374609066675	0.01138172423284795
-0.03292363239203304	-0.03166991582218148	0.004510700751377139	0.03487676897520309
-0.01804979502535512	-0.02371639870755517	0.009224035306032226	0.04398790380468979
0.001139843820472306	-0.01256620947722742	-0.001341849476679313	0.03009448202418831
-0.004422026831981357	-0.006811483428431866	-0.01060369597519702	0.01342380394921786
-0.01976898849039261	-0.01694905551998821	0.04118307358603535	0.00428287109252071
-0.02396252669414443	-0.01416775469510844	0.04528240390943317	-0.08564993935701543
-0.02812282203382817	-0.008018199726797418	0.02671010782445616	-0.0575077592276702
-0.02440142509757262	-0.0105863299092141	-0.01299826152164255	0.0762286069138265
-0.01063170933273282	-0.00774305954053465	-0.07462311734929153	0.07447361870290149
0.00190244632069733	0.0002476030987877391	-0.08290196264025332	0.01897420748935402
0.01619368646372081	0.008170268280606966	-0.04313979224435909	-0.04448308160715879
0.02476433963509212	0.007584777935530251	-0.006687672988733332	-0.03513219848759228
0.0257943370762082	0.00457499089854273	0.0912229309958478	-0.0710868026374314
0.03578067721616848	0.004800290976447638	0.09790608440569774	-0.06807776351570745
0.01618611026458699	-0.005257277876802137	0.1166732669106604	-0.03502904337121159
0.004760361134351947	0.0004439043809530745	0.0585480597330956	0.003329010431294509
0.01438395156575044	0.01070208129635937	-0.001041479471476711	0.01276088005288859
0.01247359716434886	0.008061574906025073	-0.01808078536620591	0.001279498544844383
-0.007713501618392505	-0.002802307148139691	0.009748454247795172	-0.0078340339813853
0.01547546032408289	0.00677787248130985	0.01514091794669215	-0.008067381404686665
0.01641382967565531	0.007821315890818805	-0.01360049939491855	-0.01801929281568381
-0.02108694534403862	-0.008872160347484795	-0.04474639974765646	-0.02185946141234743
-0.007702608276134814	-0.01384735328765326	-0.0723868402905065	0.002417513204733529
0.006867822219425753	-0.01036167212884035	-0.06224992919660696	0.03684437108006069
-0.02958908664723264	-0.01163682716081624	-0.04973747445771855	0.02865237581941018
-0.03812521674485489	-0.01681642481016545	-0.03098279589413538	-0.01238700351256066
-0.007823775599281968	-0.009100800197717826	-0.0296639215872429	-0.009434359801290513
-0.004610385307396025	0.00179369530277148	-0.01220316655516931	0.007680049220222303
0.008958648963050146	0.01241000336685205	-0.00958140428994878	0.00228858907772587
0.02191079032010695	0.01480347620257068	-0.01087725203056253	0.003863398055849465
0.01464327091328887	0.01643153597483138	0.0232818593474752	0.01926207813329854
-0.02809566418014005	0.03945122195991815	-0.00319214481245361	0.01342627992836957
-0.02495278471504957	0.05808125457275511	-0.007917805499212659	0.01289553724856457
-0.01207012454305077	0.04327304209501853	0.04802641188614455	-0.0002617270019915953
-0.01672391893242163	0.03059579303189139	0.08764828347994782	-0.008397789146346851
-0.03302710941885868	0.02034972467612867	0.06906915867131085	-0.02975141086829489
-0.03291152991515527	0.01286249286396604	0.02460007365564554	-0.01579944038425786
-0.03326476843143785	-0.001502680879673771	-0.009965364584560174	0.002282503298792792
-0.03699272109449986	-0.004902458215266275	-0.03168875460771196	0.0002867049477777327
-0.009241151587803902	-0.002428933135837287	-0.03269376470176615	0.05107876158962905
0.004079929422675104	-0.007830069663375317	-0.0222239818203099	0.1235481064556043
0.01665785535888052	0.000972914691520499	-0.02984559005602099	0.07727105512690335
0.02072616150020989	0.003886020827315905	-0.1131801594292742	0.02384875091877369
0.02133530079593655	-0.0004496809449704372	-0.1076830191988604	-0.02609340518765954
0.02018660451530208	-0.00692615431044512	-0.09717471845318396	-0.1430827561942119
0.01859495922358669	-0.009941102887639238	-0.1019126799103697	-0.1583768967534234
0.01457514858520969	-0.007028708464174717	-0.0253673175514667	-0.1066987501401301
0.02016988858737326	-0.001142777300222658	0.0510636810206472	-0.02614756497927877
0.01896585954504367	-0.0006595484693891558	0.119379988243966	0.1087082038786846
0.01433613730703871	0.007979110817755803	0.1691277061194168	0.06374787586737418
-0.000619454676413631	-0.001363823251388126	0.1416785592342625	0.06442784221516382
0.007114349016354418	-0.005075124118088118	0.08772303551438465	0.03988196687491003
0.02049773746947263	-0.006217255732147364	-0.005190516681137508	0.008160836152956938
0.02321802933449403	0.002952076207045829	0.006164983290681566	0.0007363605868407052
0.01273721207757655	-0.0183283957464398	0.02322489695365915	-0.002220930616937576
0.007355832726664802	-0.02998952057743464	0.02402841453937624	-0.009981697253062199
-0.007506462390355462	-0.03540590755381731	0.01847525039196918	-0.010089861428981
-0.01316361358909068	-0.03203116849292659	0.0291159349106469	0.003420540172942241
-0.008755909885743183	-0.02864412622693279	0.04571998769127206	0.01183543008276123
-0.01101714718745754	-0.02932536325827478	-0.002454140065659218	0.007596900381855844
-0.001509938602095914	-0.02284494845982259	-0.01736697614995643	0.00232484081125447
-0.002169531150523756	-0.02538182745158679	-0.006577192009334153	-0.02684281014404469
0.006705631830516305	-0.01832705111335926	8.910995030482515e-05	-0.03927196310319723
0.004264199362462045	0.002536404950145487	-0.02357475718880911	-0.01022459695752123
-0.0004173438953939884	0.0254947568071509	-0.03205544844757603	0.004234429752852267
0.008552792598019037	0.02233471957253723	-0.02994952852631595	0.02194878442853727
0.01310002397280009	0.01885354155205155	-0.06544385632214331	0.1254507471633749
0.006275181365293627	0.01854746512313021	-0.07228516830404273	0.04591866372409099
-0.0002873011146119937	0.005350157233245181	-0.03403404907486185	-0.06849966690394237
-0.003761095581421806	0.00129026175113601	0.008073123302183348	-0.04817564804734485
0.0005483141677447138	0.004189806032691152	0.009508929653047771	-0.0001586005918044491
-0.003591404698170937	0.005845321589146444	-0.01667665119030716	-0.01341371076854592
0.01037753282893053	0.02095612247530425	-0.008079013229417195	-0.02244732585391911
0.01261974046262352	0.01712195643892629	-0.006000942220028201	-0.02630368301889657
0.0106277099118208	0.003286927892659641	-0.01938525802811582	-0.02231991705185955
-0.001722877248460245	0.0001091587876978028	0.02026751416686786	0.04555990886765004
0.0003034109750183985	-0.008888019626150158	0.03585400352872072	0.008835296725001301
0.003613421915916916	-0.003966057169792792	0.03574357065355009	-0.007471312705250957
0.0006069868400104555	0.00488984749744192	0.006629731731564306	-0.004876486823191356
-0.00316898878438377	0.0004257522976058968	-0.01304046181161004	-0.008174173958416679
0.001924780525424134	-0.0009862828025195792	-0.0085482232643341	-0.005254954308260386
0.004179552069049158	0.007644125941380114	-0.03147240019400577	-0.002893209980699371
-0.0005647877873277046	0.0005433813082291153	-0.05838713613300407	-0.008762613499315872
-0.007578148117697392	-0.01390731373132172	-0.04909287840202251	-0.009953658675336929
-0.01066986873969122	-0.01851362810343089	-0.04143785605369417	0.001401696510732415
-0.005599296603260744	-0.008630724151269689	0.03089892583766194	0.00313319995552711
-0.001887547675754925	-0.02005809053576401	0.08360550270348643	0.01522896736185818
-0.01145420620999254	-0.02438709883911803	0.04076519200387727	0.01024074700425898
-0.001245124117664291	-0.01429300223965301	0.005781050204782026	-0.001680763716491189
0.01040081215860415	-0.01634515142205138	-0.02118218358653874	-0.0001631110742504484
0.01683880078663364	-0.005612222993995381	-0.01738069908828915	-0.004590144799012444
0.009569384580598639	0.006444854457941128	0.006228607405735302	-0.01605720295271915
-0.001062935303023416	0.02413070186207103	0.007978199211875816	-0.01768986492490265
-0.001952655373111355	0.02070692861137767	-0.003382917283121812	-0.000117777971381431
-0.0321229959130694	0.008429949102172983	-0.007799707557854921	0.0279790028434449
-0.02013590755365426	0.01321450273291276	-0.003133298007409728	0.02688299984304207
0.003452537167197903	0.01367198302058334	-0.01340500875730558	0.004431740451424073
0.007469645136027674	0.004597335580392279	-0.02391635793958749	-0.015046609923585
-0.0003625331708802349	0.006777749503971111	-0.02206925103750379	-0.03768086601055054
0.006904043084154296	0.006647714317742635	-0.03378904776329366	-0.0792234757473078
0.01750310910276632	0.01867684849171831	-0.03234944905914763	-0.0770529623120928
0.01182150210262903	0.03260223040986997	0.0357719983516944	-0.04070052623840165
0.007376395428112553	0.03795513996474145	0.05171690016687628	0.006701805251846863
0.007569509292051448	0.02966082040441922	0.02325147465959408	0.01464878713778653
-0.01796871839656793	0.01599207032616619	0.09154003020753421	-0.01235823140098712
-0.03296752964073744	0.008084836044545966	0.05465385534397223	-0.02704784689629357
-0.01857280553069284	0.009808703832285912	-0.03308239968403015	0.01892965312029931
-0.02900070232534881	-0.009149257015153456	-0.05495966277854451	0.08103469308545823
-0.04335074438268346	-0.01257087596581693	-0.01608453121354401	0.1430924527436892
-0.06153193891762913	-0.01247144533371727	-0.01472792565721188	0.1821041326479112
-0.01775964045865186	-0.01173232434594639	0.01534071180691195	0.0772351151999079
-0.001119374098099675	-0.01167329110056522	0.01698921120921891	-0.03519035764927976
0.005349087893994537	-0.004027167518020755	-0.007236810243363523	-0.0969066436850954
0.005516134755818938	-0.002612627730381214	-0.005835259928476917	-0.1046325253597157
0.00512062550431165	-0.002911801914744976	-0.0301465059131889	-0.08397708989469439
0.004109215604789675	-0.007209434184118336	-0.05589482928718006	-0.04000667656420226
0.01156017092268626	-0.01237850833021818	-0.05748686423008154	-0.0153025568013121
0.01532388383877977	-0.01574837476441213	0.006353914433840242	0.01229018072758414
-0.00563094060699462	-0.01201649485029755	0.01645572453653328	0.02466709674337183
-0.01103185053968291	-0.02568084738958089	0.03036824156772744	0.02433090360239137
0.0008193716386625983	-0.02982993227779026	0.07748317137201004	0.02408863354643299
0.003885605386034816	-0.02711533856634566	0.06639468913438533	0.02443637082813759
-0.01016284293450655	-0.01874777980034729	0.0714511037793357	0.02771821226628768
-0.009137245625699784	-0.02026921955962526	0.04546370261716888	0.01491344590372224
-0.01294251373488255	-0.01851340353909576	-0.002114238222977646	0.01365905197633946
-0.02832264446324528	-0.01724070769104066	-0.03670849504619151	0.01213918717125401
0.002591916264314058	-0.01357045641305521	-0.03706803115046137	-0.008017184492885694
0.01888043103804484	-9.95251010312019e-05	-0.005339475887739528	-0.03757882090274266
0.01187732217906356	0.01114052139719813	-0.00418223662263703	-0.04063064962096088
0.006161624164364127	0.02290115818492878	-0.004089378112545838	-0.02722688076071912
0.01201358235755937	0.02235580146084553	0.009970957579405582	-0.09669285582651109
0.0161435055049798	0.01711838406561452	0.03805363498051892	-0.0561012355295667
0.007412411341406338	0.0207994649293727	0.006657047053430562	0.03707007726211582
0.01250672260393573	0.02881696198896317	-0.02917509515704063	0.04088899534922526
0.009950547793756917	0.02804495334494018	-0.09067292041381332	0.04433592574028576
-0.009580220172810867	0.003898162359158657	-0.07198376912234118	0.04451522350884927
-0.02724961134296573	-0.008803980877062389	-0.02908408217576498	-0.0002938261130459929
0.0005942048950831818	-0.01555565890365428	-0.004749726184575941	-0.01578791917497089
0.02306122863721698	-0.01372761142615392	0.08237129873631541	-0.01580099411663584
0.03109281521422053	-0.009561056970507154	0.1010324127101503	-0.003837771941534625
0.02871972547833797	-0.007723522534710939	0.04623708501027442	0.000140794702603778
0.03963349285494489	0.01234180878717462	0.001892160973142589	0.01908170573400234
0.02888779599920319	0.002535904806190828	-0.01982714423029938	0.02997070284469454
0.02943618631281328	0.01596179799637743	-0.01261731571828138	0.0133833135301237
0.01349601967249956	0.006064031182897178	-0.01592371892571894	0.002928103526321242
-6.036869132496588e-05	0.006615962487635335	-0.01801607272394203	0.03958401530287821
-0.01584744852635624	-0.003365989425813751	-0.02601724507736915	0.0453774502943959
-0.02283736738849545	-0.004289737475210931	-0.0216053052743184	0.03109780091017537
-0.00621049858129676	-0.006305635780895339	-0.05668865927139458	0.003270380403594203
-0.001429398103455791	-0.006342827019740211	-0.06143955030102603	-0.03538377534069823
0.0006599462369466702	-0.01100340169013515	-0.03552426785092893	-0.0483126053737585
0.01529817716643357	0.01905598090934685	-0.013601211644433	-0.04788817549081936
0.01366655294186738	0.03649446038518687	-0.02331958255565386	0.04237040179020311
0.00346526349933597	0.0199293699864528	-0.01537298501147887	0.06512545558051683
0.01128919504549056	0.005133715107284453	0.01427911205102405	0.05459726838620459
0.01292125796068495	0.0026622840187584	0.04044542012872262	0.01576694805338465
0.01682680009724654	0.002275570229276179	0.1027133480000149	-0.0874813285791966
0.006261867463501078	0.002136606093961536	0.0891179694080669	-0.1453654389736129
0.00401597420116874	0.008046893368038089	0.04156199118709854	-0.1517362483661658
-0.002561419620876528	0.01599406809520613	0.0367292113566022	-0.1154140112950407
0.00215582106735056	0.011628967678305	0.009005153503927853	-0.07819229083513624
0.001460417894960157	0.001169796969860511	-0.02384400823954854	0.03458640729868007
-0.002413420897135659	0.003169891595200842	-0.01406181557205736	0.1567301714096603
-0.001712132286984113	-0.002866289599709351	-0.02263956746957704	0.174831280931422
-0.01088867785323662	-0.009734996779562841	-0.02566775517316396	0.1054830263235222
-0.01441305252005113	-0.00503870358519069	-0.003085099511574452	0.05865486451829106
-0.01251230104622315	-0.0176958404793891	0.03732927831740199	0.0357297057605398
-0.01185270373119857	-0.02637248204534617	-0.01792566236772762	0.01298865801282465
-0.001457126347434151	-0.01771538864550114	-0.03793539125477749	0.00356006746654533
0.02038052515815768	-0.009952000217839348	-0.02273637762048324	0.007641937787528331
0.02833707297425111	-0.01558146194045283	-0.01168606540240035	0.02362370658290688
0.02893837382584682	0.004052429659459796	-0.02479536357283098	0.03669683095987942
0.02482586484688346	0.01807567414609374	-0.02284392437320706	0.0381936937734107
0.01492290881091009	0.01957996133831074	0.02505862679890274	-0.0006556328289504109
0.003478952660151031	0.02254976130143411	0.02336221038142553	-0.03034533549831906
0.006299965628949863	0.01805758756791681	-0.03191995180645897	-0.05879349078178332
-0.004679308952851581	0.006184803996466133	-0.04543187692709583	-0.0666488466879069
-0.01718784226879285	0.002416720352624602	-0.03933004962238192	-0.04673948866798665
-0.04337624497510813	-0.009003885901020282	-0.01094211996330229	-0.03735355566400322
-0.08739722823305789	-0.008320166464301715	0.01212557998043911	-0.02049074905942359
-0.06266752849626328	-0.003294077201377349	0.01218971634531759	-0.0106091418101183
-0.01630584128229179	0.001770506033629782	0.02315713437238214	0.006994535559842204
0.00361121560747976	0.0001526680673404056	0.01645746550476083	0.001704474895487384
-0.01983607877670037	-0.02624793777921719	0.001326308471702384	0.005646780994538455
-0.03809961929888313	-0.04162699497955789	0.002159367192898899	-0.004060503013696698
-0.01114804379353816	-0.01996446824219512	-0.005030783102062441	-0.004823003161994442
-0.002657988637840523	-0.0007900020027668251	-0.02348275982735148	-0.007530935646192129
0.005940034803894965	0.005413583275152289	0.07456757871065579	-0.0428026864965094
0.005556240841216796	-0.003562017190744775	0.07853269075811815	-0.02948472220089074
0.001755993022587671	-0.001032870096562903	0.02936257091004885	0.008569615776510008
0.01076040221609136	0.001430926541455246	-0.01746017529658295	0.005103059908747859
0.01586121496274192	-0.003538763963757903	0.006725529176887039	-0.0004206308482103942
0.005153499339436097	-0.02557476729214793	-0.03417388124022049	-0.002185382146550105
-0.02043349904380489	-0.0371185244261419	-0.03390912341017568	0.005622759879244574
-0.01542235417396482	-0.04695497858274233	-0.03154177850042987	0.008008977751210091
0.007303444156064437	-0.03688083124941285	-0.06684349376073531	0.0131658834202107
0.009038168516857088	-0.02035763172720701	-0.02982317903789094	0.01917692641189296
-0.00367368420077732	-0.007013814011953168	0.1202231983482143	0.0322049925767829
-0.005195027230334828	-0.000128829321824857	0.07259104408679223	0.02004177933550114
-0.009766352259771696	0.00464586795684117	-0.00290822899183942	0.002179134878479053
-0.0229979702629389	0.0278453230917871	-0.01597441396280109	0.02758018614394531
-0.009626818896127	0.05397383522925538	-0.01738863678486543	0.02303235935357056
0.007804447375894519	0.05737842949996101	-0.005841346692769669	-0.03065732477785259
0.007038343738938496	0.04100962806937518	0.01107465032971472	-0.04909957611949245
-0.01399402119009018	0.01777133044120913	0.02880484466172633	-0.05578474920820797
-0.01596655448561539	0.017029253990862	0.0434331739972924	-0.07963653161416405
-0.003553939967042933	0.01841077462812518	0.02106810082456479	-0.07142557424349792
-0.01118089042870348	0.009424487484887493	-0.001845439587070111	0.1236714155643736
0.0003645442639946801	0.01060472727796534	-0.01280823278658314	0.07204376393776354
0.008065818562592387	0.005194732636353789	-0.05149954319827496	0.009837812504577426
0.00761772602144174	0.002668776911851719	-0.04408028953146465	0.02142535239178314
0.008688022643739792	-0.002810060888326244	-0.05954126204403187	0.03682363381976331
0.01557772654175503	-0.00880202461802768	-0.01467526024264619	0.0139554765165147
0.02556092553728363	-0.00831506780572481	-0.0218362314684956	-0.02456229348975901
0.02337384760610728	0.007612572094521195	-0.01848708066960587	-0.01685988398646366
0.02731744034381791	0.0136640474799925	-0.02646105462363246	-0.02617229777284779
0.02031911389309192	0.01765256686589008	-0.03347032031933302	-0.01651066873332456
0.006779826979728642	-0.001530317985747899	-0.02246432984803429	0.003941855412808485
0.0008639387927572213	-0.007429971915054828	0.01559123623047406	0.08896072899413357
0.004521966928304618	0.006536005270478853	0.009817458166267071	0.0955020556809663
0.007630507736229459	0.006532613687304137	-0.008286533704890736	0.04157630636613841
0.0197578740628926	0.005229807542600541	-0.0003474068088887834	-0.03674366517701495
0.02280269250430525	-0.0006490400812920907	0.01432817383672432	-0.09876011550609701
0.01993600664888508	-0.01189217597607676	0.009600528665707278	-0.1066682800146936
0.02461415466770678	-0.02056850325729106	0.02815601941564366	-0.1196942081995669
0.01944378568975405	-0.03137127845889595	0.04911115540861527	-0.02828113484104993
0.0194948491568701	-0.02467802879939501	0.01842184861492098	-5.453951377653232e-05
0.01758602557916272	-0.02398642917105205	-0.02064373681766746	-0.006242378494275376
0.00173789126055262	-0.02103403709154716	0.006694059423272163	-0.01126473524401666
-0.01442965939509537	-0.006743610411010665	-0.001698961493890548	-0.01877567437440137
-0.03933379349346244	-0.001368795237094654	0.01531441881678829	-0.03590507655182404
-0.01707761019670501	-0.002699214789761597	0.0405070198044566	-0.03447598750967207
-0.01337957555110132	-0.01581260818357046	0.07360085304013923	-0.01825276182807067
-0.01089102933085441	-0.01434309095062724	0.05140512974982969	0.001838993778307106
-0.01642445862959302	0.008895020822948465	0.01925263278788812	0.008024378848473889
-0.02294645513756136	0.002826036273490224	-0.005562312064914648	0.02932352036237552
-0.009096737252903284	-0.0002325433129356508	0.01160664419766865	0.09251422478121162
0.002908338868075415	0.00899694241556878	-0.03440684212839259	0.06671642600733974
0.01305119136869719	0.002734108021254872	-0.05588954582171081	0.07532387370877484
0.01385282476975017	-0.0006361364866583498	-0.05846127950623713	0.0687842632457893
-0.005260587277995456	-0.00290372127547511	-0.0626502436924794	0.007544351854699642
-0.004502562740927378	-0.007389142278261896	-0.03756650857094834	-0.02792055499657399
0.006926772926245974	-0.003945192799957594	-0.01095095073435699	-0.02434899268697745
0.007730378393153986	0.001064337953299527	-0.05138813211574893	-0.01706827749637484
-0.001560387225694494	0.006517977384367734	-0.0525356006525846	-0.002006598387529839
-0.007341617814280986	0.01341911442230501	0.01301831167473006	-0.0201271368644635
-0.006088368556359825	0.02349201925781	0.05175465300970584	-0.04814224922440487
-0.01688609317805419	0.01751694323939473	0.003135296618075083	-0.02381799451693324
0.001609850866643905	0.01068693868588083	-0.01314171084076656	0.02962058412650834
-0.01566328957145148	0.004210621503626539	0.05163971979434161	-0.001382661120881989
-0.01093129035079812	0.00516372059817074	0.1198589452373233	-0.001009886341403478
0.01128125978314035	0.008174959171312389	0.0634722539127094	0.05863925411366255
0.01746817609345388	0.006291374395343631	0.05468899034402937	0.07085403091135575
0.005380800976499899	0.006409920602693948	0.02502336368043095	0.03013180034454976
-0.00261976874166964	-0.004687333412082341	-0.003156775093977811	0.01042084046744705
-0.005576925720617377	-0.01250156878283333	0.0107014194212479	0.002942531015975907
-7.808137816638577e-05	-0.008315929414362414	-0.006850133123301792	0.002822407480473579
-0.002829068670408648	-0.01254471114750433	-0.04669194435628014	-0.01144016715361735
-0.01292367988755587	0.0001508188356324542	-0.06503008791201732	-0.0301102057827912
-0.03516573658288201	0.006018580957220359	-0.04956810289952972	-0.03180138688314832
-0.04055692826691941	0.008799120408582436	-0.03759015979198532	-0.03325606838220965
-0.03505803453468388	-0.004428243746603486	-0.03822825111240147	-0.02900240202807741
-0.002774501056394775	-0.01046505293285967	-0.009466354996161955	-0.01186645661329113
0.02616702937429694	-0.001367251582635124	0.01077128061802838	0.03587015328955353
0.04509273024318088	0.01523351716270401	0.01257000161002831	0.02351742057433066
0.04511664651403628	0.02944535887380293	0.03520111604786442	-0.02367370502115348
0.03694141091478215	0.0333869420889184	0.1236694310605279	-0.02412677607712417
0.03052288982235719	0.02616802407206203	0.065479539251347	-0.03514025391914529
0.02870439839761961	0.02841996785599984	0.03168800911294682	-0.02854919991412497
0.01183398894791965	0.0118315159137098	-0.0226265651462237	0.0473775016417208
-0.02169561337219716	-0.002398198757719594	-0.02828685909002321	0.1188821697974302
-0.01701967616052237	-0.01047457350425551	-0.02983962610290735	0.02305308109959897
-0.05502143994610703	-0.01780677511765339	-0.02660724692234334	0.0008482786695500752
-0.05215185662092345	-0.01748525717277319	-0.04654138458379371	-0.01379828198387168
-0.008885720380244457	-0.009674189254123952	-0.05512040906913684	-0.03056972586767688
-0.0293476097664222	-0.001934384937879931	-0.0101937322887987	-0.02896766815018682
-0.02121488497756382	-0.000421004527164853	0.01572988428748799	0.02820981321734416
-0.02286086946265435	-0.009444587677637884	0.0680026288966516	0.1213494533881187
-0.01513035242201698	-0.01317545860206475	0.007524834752785628	-0.004417065984449046
-0.004533753036437102	-0.01342384543051206	-0.02494142302305774	-0.03726918553861433
0.005455435933024514	-0.003194570131328746	-0.03282456000726913	0.0003998267439444871
0.01314377591776743	0.005141380604161806	-0.05986728531813412	-0.001270027333513938
0.02115066391701997	0.009479042495517682	-0.062490788650425	-0.0001201968865921543
0.02513887575198865	0.007172923219452005	0.01436642100600276	0.08689477285782725
0.0215866684304272	0.0002560852462299998	0.07253095661287354	0.1090562270480296
0.01756274613407445	-0.0100370292092601	0.06085545672604249	0.07022374145665163
0.01739501877305383	-0.00928537446048616	0.03825856512166732	0.01859058154595038
0.02308169996884555	-0.01835458659868621	-0.002164900300977527	-0.08342928238818743
0.01374239072833459	-0.03134324200312118	0.004630334247560139	-0.1483580389819462
0.01068883093014858	-0.03580371248668615	-0.01232739532536028	-0.1565611653119626
0.005092315757981322	-0.04319896058745411	-0.01557726704531561	-0.08684821415733886
0.007875160005059455	-0.03086693627680791	-0.01895163348519711	-0.04425587781729366
0.004749899801621165	-0.02228853593606535	-0.02231560876048191	-0.02433251294852714
0.005122547528101795	-0.01185222022609958	-0.01612412106106138	-0.0248782659815357
0.007235714871679637	-0.001492552942768539	-0.008779693308146921	-0.02144263561413048
-0.001254570266839631	0.007139913182607009	0.002958317817126981	-0.01133611717009849
0.003879568219347948	0.01202358752769057	0.01096632422239239	-0.007259727713881744
0.007188256312170722	0.02331043553043806	0.000558159246646575	-0.008452534120328734
-0.01163131768521134	0.02285086860968016	-0.04465761477542107	-0.01143563251652902
6.201691828553791e-05	0.01944725711105278	-0.02733256892067815	0.002394025744505097
0.001748757742414299	0.0183396619617557	-0.02663158004015483	0.06084300367662914
-0.0004168190396228638	0.01643687442911062	-0.07612096641465087	0.0308175286627192
0.0001192666246451282	0.02041115531452268	-0.07015715282819865	0.00111172700300114
-0.003211997408094168	0.02059480235065402	-0.04715526322215924	0.0009902233380706866
0.003580015696218514	0.01717906767985601	0.0233975903402274	-0.002126535689013664
0.01437188391012965	0.01529393372239324	0.01475504794320441	-0.0005931805176247639
0.01616919067218235	0.009452475159701483	0.09789438405142958	-0.00675520536260946
0.01821735813954195	0.001902679250626848	0.09672113371321968	0.01030604028820726
0.01156113155240847	-0.001990789763214301	0.03519575387919651	0.04024471590441168
0.01088666311935206	0.0004669130488903547	-0.02628444938413169	0.04635406231232896
0.01589147401238556	-0.0002767181546467211	-0.05093007880924502	0.05078865805291122
0.006147696112082006	-0.01631925453020359	-0.06313692327467704	0.06792692534725635
-0.003150592105931528	-0.02221184687855147	-0.03325964055739744	-0.008869342149876436
-0.023156281938256	-0.03356631880957991	0.05312601472687713	-0.0496531284794537
-0.01737412054111706	-0.02957389359027869	0.0635200439728614	-0.04406776421764846
-0.02130764254776485	-0.02228185414469138	0.076164209310374	-0.01656205284164211
-0.04720251242608565	-0.02267386654911459	0.04687679864427401	-0.007762880716922506
-0.02116805860315093	-0.01878434303710448	-0.02555766762920055	-0.01056192248224445
0.001164792676778899	0.01794106235566591	-0.02476619295124124	0.001683647979877199
0.002699258613381465	0.03619665492178638	0.02757797658377369	0.01098206524788304
0.001607003189964874	0.04387829514877692	0.01428432876350157	0.009781919251916897
-0.008239722756742694	0.01341688780735154	-0.01354845596164705	0.01636849466724961
-0.005617095849713589	0.01044914746019963	-0.004986455915061234	-0.001363067922674469
-0.01134714507591772	0.01822930344714526	0.01329418102042676	-0.002044724121306043
-0.003820160481808058	0.01849935772585596	-0.01443914378911191	0.00855047615138595
-0.008366652955944461	0.01459656294887648	-0.02708740740838619	0.003645634187856307
-0.02023468191863005	0.01290849759296758	-0.02682891759324096	0.007377557172778338
-0.01692591164519041	0.004250765363842582	-0.01541688304213634	0.001782181708114742
0.0001838117876582427	-0.0005524860406206436	-0.01108137330457151	0.0005512785124563854
0.0006677927056733655	-0.00296508589545872	-0.003838302695174559	-0.003675192935821408
-0.01638786263780065	-0.00354083726847709	-0.0302104605390224	0.002867664023907646
-0.01876862429757351	-0.008919275783408962	-0.03992680052116641	-0.02266817359231605
-0.00156470796909167	-0.007195040841811883	-0.05479643782162231	-0.03871124386681896
-0.02230486150508764	0.005176600958311138	-0.02878400577766552	-0.04970662364474975
-0.0006595618402549676	0.01421129637028855	-0.0005368300909503733	-0.05883678339539278
0.01165309084712516	0.01656491605303315	0.103175136041804	-0.05359266170052478
0.01548758371754709	0.002377497991788549	0.1635752423820399	0.09476826072903638
0.01040333615088399	-0.00318173073838635	0.1077572731346561	0.1699532451960977
0.001153589064538299	-0.009239952507076528	0.05114280358250255	0.08125696715542102
-0.001711144913499243	-0.009286285507778033	0.02759437390787043	0.09613777510069979
0.002537129634376314	-0.003648806139843434	0.008609802479624302	-0.01869293941395926
0.003167986765894653	-0.005977474388768919	-0.01884758801816186	-0.0270467811344743
0.0002539752178352412	-0.007514431462420049	-0.02895962056532067	-0.03056421990085137
0.007925706851983343	-0.008358309270632625	-0.05433622277661226	-0.02763244978729498
0.01429087339605456	-0.01001418699084901	-0.07386015890244058	-0.02490797585782288
0.01269622325896843	-0.01649871934620629	-0.04353324140484054	-0.03345252801439762
0.01618560760672295	-0.009617014843333856	-0.06127635662358526	-0.01317701209705711
0.01010290301501667	-0.003860834457294846	-0.04023048995474815	0.02889177969053785
0.004234819756414284	-0.007282231762100023	0.02373793584293187	0.001511997689337816
0.005825283755334478	-0.008464262368585529	0.07626643795588785	-0.00936745442700599
0.01249822299832179	-0.002283408736737694	0.1016766115851959	0.0109532438242889
0.01738197641062323	-0.007067064763433429	0.1000923044582223	0.02180016507998304
-0.005447196081590715	-0.007255807982323363	0.03007098382193964	0.001015254662952335
0.003578285811807387	-0.004186654834058581	-0.01416703388124828	-0.0295508682379555
0.02433836217489083	0.003890802273957692	-0.03694549878323455	-0.04031236639071038
0.02467261295034268	-0.000737724940466361	-0.0115668587534602	-0.04742023618166916
0.01296207804437574	0.0004466638271318606	0.006238235386429934	-0.01255260009409136
0.003080937447056261	-0.006982365761816205	-0.005826896000107291	-0.01942154069816971
0.005303388689655864	-0.01035324826472852	-0.03642338647279085	-4.887351667084332e-05
-0.008179160325827816	-0.01576366040985899	-0.05111162419528947	0.02604370683494046
-0.01910613695385759	-0.01282674890917648	-0.07242500764778426	-0.004132298995041265
-0.03199161786487235	-0.01053709235029194	-0.08558951437188647	-0.02974642868328575
-0.05358957930799087	-0.005394826971251186	-0.0276958207434513	-0.01208519083478212
-0.02949284469434735	-0.001172282619300441	0.01092569838500117	0.02807896381202079
-0.01435447324975448	0.0008133211635942689	0.0370525416599192	-0.00243249916982126
-0.002824325575598471	0.004259579659258852	0.02496037352393213	-0.0295412994723993
-0.0007028086818324318	0.007416135496912005	-0.007241833725244386	-0.01453393850694789
-0.03191095128653826	0.0001828972421605354	-0.03188805858502887	-0.03025014973424423
-0.01914692708186123	-0.006592239526012235	-0.05385711883251964	-0.03025315366848365
0.002968422513901643	-0.001151368325492331	-0.06233985694034792	0.01917360756255513
0.01081073684862785	0.005288159426095368	-0.07763565936896896	0.06864807315617918
0.006571865603156774	0.003046987910227402	-0.02664967632972562	0.03052974024340405
-0.004455443427710377	-0.008505057879937907	0.07247692189340717	0.00841482746193908
0.006361021763110644	-0.01339746029847773	0.1145352002169475	0.05416213242599534
0.01707881237011239	-0.006185258000921486	0.0484468839011139	0.03888331185915662
0.007342248695752393	0.003196109497583401	0.004129432769187696	0.007474122437444759
-0.008590406911119987	0.007137979600675736	0.07324040313221879	0.007066600831548545
-0.001102721490565	0.01347408282335531	0.06809477364410328	0.0006427924460050156
0.01549224071690437	0.02385943212209893	0.04712410766060979	-0.002551782052924074
-0.004897124666877445	0.02991630042790207	0.04095745168726812	-0.03214979251450711
-0.0217531892150822	0.02286875973364286	0.02106477239209618	-0.01247526045338811
-0.003852768963057753	0.02049301681619275	-0.02193794764491991	0.07399774650246758
-0.0009261344924635416	0.008838898494123537	-0.04302875151747357	0.1316937954540434
0.0125466535449698	0.00714476320261792	-0.09895630740513754	0.03794791783218704
0.0226786112068707	0.01223258075871125	-0.09211061509782943	-0.02528213224240635
0.04053833736310647	0.01485978659254992	-0.02178932168930348	-0.0380369516023719
0.04847770149146881	0.007155793751180979	-0.005242312650484297	-0.1012838549781521
0.05204220195835719	-0.001865626741774841	-0.02699421002267144	-0.1147910619442183
0.02549861375913145	-0.0109924359377676	-0.007996197098345932	-0.07840584886238093
0.005630971024435994	-0.01644336541401192	0.01177589044016333	-0.04494230433218134
-0.02612969906667752	-0.003124936579241684	0.05516901128999174	-0.01350005079111755
-0.01764515252806063	0.001653496244507231	0.06069012596151912	-0.01390718387796785
-0.02261406121064821	0.01464881529720291	0.04622291856176143	-0.001296649346500601
-0.01937971496266347	0.03517574954152418	0.02174222231515457	-0.007730236295184914
0.006943165327782956	0.04413815329160285	-0.01621072236206378	-0.03019217820604831
0.005051701507710759	0.01954527654531577	-0.033453326425011	-0.03071304720483416
0.002889428439707972	0.01579894264089588	-0.04338662162162153	-0.009229359558896219
-0.0002222518012374549	0.005483997229015541	-0.04475541210648758	-0.004345672688499571
-0.002926005962732886	-0.0007563786235546677	-0.1010603877764534	0.0280506453515111
-0.01094018649326996	-0.01022350311860096	-0.0920923749970048	0.09247111664147478
-0.01181398934368428	-0.01251488830971134	-0.06440695259146964	0.06784002947493203
-0.002136916091862289	-0.0111068158115205	-0.008400133044085829	0.01673916622808786
0.005618332442594303	-0.004576661539831223	0.0658499623310724	-0.01477541316296127
0.009879624222361891	-0.00139281327797012	0.1610146062519458	-0.04952373924039721
0.01831192276016314	0.00946541849156814	0.08806530837462424	-0.06561921036160635
0.009571596743062077	0.001131847022487425	0.006597649063277498	0.01165204344324903
0.004986219712627348	-0.02039780328678035	-0.02098719373353148	0.06966842252438571
0.008007890793150362	-0.01812892183739489	-0.007565704413588949	0.03043186352491457
0.01265561441676128	-0.009873987726164529	-0.01313100579619858	-0.02617283183110733
0.01862990646908895	0.004196254501531391	-0.02302935642982288	0.01546803795892834
-0.002561833513975362	-0.01549453656702832	-0.009990638117055915	0.04012986147315162
-0.002667015021761391	-0.0337356120162839	0.001715118501107889	0.0948451422474573
-0.003039793003325988	-0.03196867369745932	-0.02066698988146598	0.06867487698927199
0.001323309514605367	-0.02247996061941157	-0.022699929779724	0.01145587662642784
-0.003795052117736925	-0.009827458254426437	0.009994245208880877	-0.05555087677187355
-0.009064899528332501	-0.01879558076362691	0.03954126014700186	-0.04420258417274621
-0.01399787823918128	-0.01356675052457124	0.05492073764692676	-0.03083064852722317
0.003498803708978909	-0.0007152395256248363	0.00976215831484082	-0.0325545774210796
0.01148476514493741	0.00517935853218807	-0.03619302461269579	0.001786635261262927
0.00883263509782652	0.03248766083261478	-0.05288421049616702	0.003871369649379014
0.00691090351739786	0.03755179278942453	-0.04081139919286493	0.005732835650171028
-0.000315485223690709	0.02473079316862935	0.004889548012858434	-0.0247548059300266
-0.004519726837848115	-0.002167607496866861	0.04324811450646737	-0.01708908329351235
-0.0244602061729724	-0.02323806120270444	0.1022222682003219	0.01265255446128418
-0.0203015802173067	-0.03032242568477782	0.02086239445968499	0.04689927503527507
-0.01097452920401852	-0.04508360573861511	0.0009891189132970779	0.02515868239750016
-0.01657139060690606	-0.03044356892359674	0.02149381673169598	-0.01286619895437958
-0.03819505362006772	-0.007259561856515816	0.01051496186884104	-0.03189640726707872
-0.02388538332148924	0.0002461944048755218	0.01262244899827616	-0.04112147614448899
-0.007784373861581258	0.009471084115986744	0.00505293158962183	-0.0579794866526367
0.009557241068321622	0.008451555297931885	-0.01089201875097931	-0.05416852879244607
0.00496492240101427	0.01166123206008416	-0.01185091360778048	0.02879920273627672
0.00775456787583538	0.01557061368914367	0.01887604207040344	0.05430382853162218
0.0002203538285445556	0.01371745638364705	0.02525168577456352	0.008838371688192433
-0.0008025197123371507	0.001878966952376268	0.02292181938034567	0.0278609638490472
0.01700858270027214	0.007683110526818162	0.03882456679588753	0.04035831845576306
0.0133698603310677	0.01005947248622815	0.03232558754658593	0.0667507498404086
0.01158586471012925	0.009670398393987945	0.0007672189463994581	0.09235710820498992
0.0006626059827519336	-0.003320129788478418	-0.027040007883287	0.07407361155634808
0.002061671395028964	-0.009988576829521372	-0.02813457836950464	0.01522437742102948
0.008747240312098595	-0.008807799250744489	-0.01307476416252178	-0.0876508761701878
0.01987928913561579	-0.006304087672012798	-0.05669790318186337	-0.2003110362931699
0.005967926233065555	-0.0003324839981814479	-0.08129334488351109	-0.1487874333383933
-0.019316107547058	0.005030566481046475	-0.06293133905042561	-0.08247591126026811
-0.01588591514430064	-0.002757522455222135	-0.03976178588837666	-0.007045777145617505
-0.008097196903278862	-0.01037092439994659	-0.02140253468964633	0.07762435753456154
-0.004773627016803755	-0.006805763995512823	0.004719643355047487	0.0336222611343697
-0.01193701120865092	-0.004423672453645441	0.009367177831898797	0.006867807379841438
-0.04786971866513332	0.004381610922034048	0.001039831664854819	0.02100629432440761
-0.0359840528534898	0.009284224923616561	0.01976539684297055	0.03233206207435649
-0.03068719170646287	0.01435502937098245	-0.01541952398542956	0.03382374575989788
-0.05472605133428055	0.009634553583824838	-0.02741622327803113	0.02840076523493209
-0.05547210758576359	-0.006955701823045039	0.005884333956699973	0.02958524895827436
-0.02650360641901762	-0.00478770712531872	-0.04963755509861106	-0.006715408495625951
-0.0002179327632401903	0.002729255246615899	-0.06693437721168961	0.01090380353732227
0.01230438209885244	0.005032764670652429	-0.0356435600480829	0.01144150885760158
-0.00827990495951245	-0.001181639233721717	0.006782206178037043	0.01480836723301466
0.002832833200235997	0.00108291410686069	0.05456460593842026	0.0008180105506857579
0.0232240543538801	0.006587394074526235	0.1077730254997617	0.02625412045685718
0.02827826526458179	-0.002431068681489305	0.1088104702903237	0.006645376566030859
0.0282036256762646	-0.006850945114418427	0.06658980112517296	-0.005921746476671872
0.03393795954243706	0.004784032009654383	0.03643203848166511	-0.02530346962692071
-0.001012910339051494	0.003995802326392985	0.0259998503696831	-0.02535233308731897
0.006535105534881547	0.002924977785846168	0.001833509510921238	-0.02269933921624335
0.01996242730044963	-0.002198735246912021	-0.005342995988466514	-0.008739795611272295
0.01534798928045443	-0.00761598261902274	-0.00485539686588025	-0.003010902978164135
0.02722172948888736	-0.003755484088301033	0.01218994141896686	-0.003548955577474794
0.02923320733164755	-0.000247569051829835	0.01329879182329701	-0.00909207809223196
0.01180011897353694	0.001986005352224195	-0.0361353513290835	0.001385145410487579
-0.0001330908306439287	0.004704856306569047	-0.05626609567730979	-0.008889193259961303
-0.002369079384219997	-0.002391411543070912	-0.04798035590873783	-0.01204529180660551
-0.006977986872270922	0.005497444159874455	-0.03190679148145401	0.0005198132236785792
0.01230912529233188	0.00920496165249143	-0.0133891535913964	0.055769105366386
0.01818757206432962	0.01248125913651104	0.01020947268897733	0.07780677601421912
0.003336202316434495	0.004962997659722983	0.0253554480025862	0.01562111781993016
0.008610716367862356	-0.008022090565210476	0.02022137537645556	-0.02477271748213379
0.01486079449329585	0.002807058049577636	0.004558027696286903	-0.03061922385570797
0.01039067518614858	0.009627283072491555	-0.001796673529056612	-0.04205083531422409
0.00314043875597629	0.006353335659943048	-0.009626500128715205	-0.02632360021483892
0.008770688262792925	0.00513851299731525	-0.02010366365498592	-0.02304565064527234
0.01918817764559183	0.01149365133387274	-0.02420601739374503	0.05567996598157957
0.01611739158449368	0.009426172801599656	-0.01585970499763827	0.1324446856340998
0.01817447395103612	0.002512166215710912	0.01192041381871627	0.06322564368405593
0.01197419956492666	0.00532229494902248	0.03278208679386289	0.02718590816059098
0.01308546758269682	0.0164852284448881	0.02362453234320768	0.09154930950829794
0.01346811867038462	0.01623097258890458	0.001274020951576094	0.01081876486042601
0.009025838060852661	0.004370116685254165	-0.04264844622626476	-0.09661667820486255
0.002979137583299477	-0.01400694154364168	-0.06715106113243981	-0.05315038484749565
-0.002404364623571092	-0.0116729712710994	-0.06783597215932767	-0.03183650579395342
0.004998988580340697	0.004439192503660149	-0.03190217323596643	0.01839932155153013
0.01006069344564572	-0.003634134073134565	0.01119793302295649	0.02193536791499113
0.008871269475355893	-0.001094123130487508	0.05816296266446547	-0.01738648910406269
0.0074751865098321	0.0001397737433248354	0.07232926688281875	-0.01879999058932476
-0.014043416434354	-0.004142698988549841	0.05073383903719195	-0.01119317173637569
-0.02057716206966941	-0.0105091887902505	0.01253824473002544	-0.00591456800188909
-0.01414413532585799	-0.00981428968584949	-0.00161246892012848	-0.02908562712207462
0.0006417861645525943	0.01130556551286586	0.001012166664179632	-0.04844918119625674
0.005374425500198158	0.004864576797454855	0.005776892661455261	-0.05267606770748792
0.0002774387991960196	-0.01336495590233804	-0.01035628083949809	-0.06204049479577446
0.002301994462140567	-0.01148575204687647	0.03179326723440917	-0.04494295239078053
-0.001484443742143925	-0.02057847656989831	0.02690645465964337	0.01017243255456238
-0.01434789403161919	-0.03743850138649451	-0.02378753000935987	0.01979201345339765
-0.01548294681059524	-0.0327912855685667	-0.05060035106798943	0.0100844784257582
-0.004548151461453923	-0.01302549468446316	-0.0344297793124512	0.00182629000763776
-0.008322405956705466	-0.01191639264532205	-0.05985809467628203	0.04630685985542845
-0.02529170232691987	0.01125783851414208	-0.0491270114263358	-0.05989916137827923
-0.02169339040496441	0.01410666655763732	-0.02374659155365846	-0.04991257968204042
-0.03290913317493433	0.004875852419471131	0.06649285216826874	-0.03333036529385948
-0.02830164556285752	0.01641915247021586	0.06530972121253206	-0.003368405281383211
0.0008577912511276036	0.01953482404610809	0.03644283784197663	0.008200894126764063
0.003315762755735249	0.01106858947165773	0.02138134586649886	-0.01173319787128626
0.003571043822361273	-0.001681647987106671	0.01784985630165825	-0.02433843966589255
0.01354631447204398	-0.00298049338882931	0.01977705063481128	-0.03377871575824727
0.01359418279107014	-0.003807095218960353	0.01649326634353851	-0.01460462461916512
0.02529968923255983	-0.002465666507990541	0.003452092145553559	-0.02992500598418768
0.03000099384802687	0.0008094197800276041	-0.007791823982913184	-0.0472902784751675
0.015273545632162	-0.002230538359981779	0.0274258381268517	-0.04737887024933352
-0.0167240118400185	-0.002092525110600174	-0.004077194300195843	-0.02909844231803153
-0.056678013508225	-0.00179795292763277	-0.04881474078294692	-0.008460934552008753
-0.07259080911450019	0.01285330024499021	-0.02262546315640497	0.09653926349527522
-0.03535617606437352	0.0111368855147635	-0.01168595477696797	0.142179135745986
-0.0136133209269459	0.006196631808757537	-0.03819347940437153	0.09949119805447994
-0.01911950213000578	0.006776508269128444	0.002178374320262036	0.1713054665142779
-0.03081795186322988	0.002761002856709604	0.03579368331062792	0.06838174327300373
-0.02427668015331428	0.005076143859326854	0.02782140684167867	-0.02961819645838273
2.784394739708747e-05	0.01306215068111798	-0.02338269620960511	-0.0009083406927038252
0.01687705871040202	0.005094265478371657	-0.03672873244781945	0.04113712784934638
0.03029871943335741	0.0006233427817763647	-0.02870167132423641	-0.02158721244133414
0.02650823067494941	0.007545295254996221	-0.009807685425519594	-0.0495316433635017
0.02650909705080686	0.005717602800625626	-0.00483066838150707	-0.0565850131080102
0.01488376104915653	-0.009308511048903043	-0.01275857614657573	-0.08273973324188344
0.02597664652174174	-0.006245169405569713	-0.03004552106500892	-0.01704297101945491
0.02286676402511928	-0.008316548704685111	0.003956078146103338	0.1208660090032001
0.01648536481926069	-0.0153747740604305	0.02680276701917072	0.0729758149716289
0.0002353758507645809	-0.03665502530768598	0.04623140118099643	-0.004772191472534821
0.02117408926221768	-0.03433950301733382	0.05483314522589201	-0.03285525700460822
0.01825286845117154	-0.02448962705094864	0.03643532525086991	-0.03585168520536496
-7.213524876682948e-05	-0.0004347637108173332	0.04184320560777546	-0.04130929284256216
-0.006007489567016572	0.02116565902734828	0.04773249771336832	-0.04263991961004476
-0.01670004091714703	0.02915333568047159	0.001431633845331707	-0.02343619422814185
-0.03116740914989024	0.02632029364985046	-0.05851981312508751	-0.01421155305316766
-0.04446126595991465	0.02324126035332686	-0.06633065426267419	-0.004679685937807362
-0.03527862549486617	0.01061693294521229	-0.04945317375127811	-0.001371863659735488
-0.04062132959455878	0.002207222731570758	-0.04100735620073364	-0.005125282418638566
-0.02525855541301877	0.007439417839506304	-0.02041803411798905	-0.008381646421015885
-0.0235315126469787	0.0001047947546452482	-0.01759500958873231	0.006474280486379885
-0.02708068188827546	0.0001850507238900021	-0.05916541311625741	0.03676321221056413
0.005745122342640461	-0.012678615490973	-0.06993770756104806	0.08040054936151357
0.01174128796201247	0.0007215655928892632	-0.04751771641748227	0.07301454561178038
0.01413990629619822	0.01282166739452892	-0.008651972705572051	0.05717426483872944
0.01909910404336052	0.003706535660947387	0.04668398231114253	0.02541656160703069
0.01667067878437897	-0.01181213701376855	0.07121914479462053	-0.01380854827961171
0.02206840147487753	-0.005762962096103141	0.13647580694113	-0.0183607552609028
0.01113888091507841	-0.007434695357047216	0.09151058992755794	-0.08083189493024075
0.01878983238856526	-0.01733692609893623	0.05574226429346212	-0.1065248190994464
0.03136013630377654	-0.01181440430934652	0.01705203335140564	-0.1210718654149995
0.0294948390575362	0.007317281117840911	0.006894332775331158	-0.07279647486372
0.01125495095384922	0.001261777149817788	0.009442881850778429	-0.01103288824696939
0.007898772159534096	-0.008867344728763316	0.003612350479517006	-0.01986050826926055
0.01361631620224401	-0.008984955874671558	-0.01952338041797636	-0.04237656148938016
0.02004375201834847	-0.002868542298428448	-0.03892775515604553	0.03329459221635632
0.03339552701272069	-0.001167561159750567	-0.02736241821756765	0.125441018503356
0.02801528966482455	-0.003841048171930631	-0.02068097540098655	0.05378122634075852
-0.001885529944871567	-0.007835212343383956	-0.1038837496593871	0.01730286219798967
0.008215283756469797	-0.005219226372571557	-0.1208310788815773	0.02206246235473233
0.02451901016695935	-0.0006920338626474627	-0.08992989839161866	0.01091589596420635
-0.003359546402366675	-0.01073007904533651	0.0293653043426679	0.01704805157027987
-0.00383961896618886	-0.002479671404174798	0.0842239486294596	-0.003213537554297183
-0.009010830354892026	-0.01024804361342464	0.02948394341704098	-0.009297614821288453
0.005589139568123703	-0.004896364347350299	0.006571288866415823	-0.0106966608761441
0.006454216786628098	0.0007919278313820935	0.01393856080504069	-0.009998690400975499
0.00667921102209757	-0.002234236276743099	0.005880368469241537	-0.003396516021702892
0.0005035409681805689	-3.350611090731924e-05	-0.008186033469307607	0.004676571756016074
-0.02687944426245839	0.005696303148374973	0.02512569339251956	0.009704779666182826
-0.02854942921712414	0.005612221508512128	0.05028550658049369	0.03170320115508098
-0.0116363716884811	-0.0006154977856454487	0.08893506993624105	0.09125256310955715
-0.01496074164059179	0.004408272258260163	0.04762770190564859	0.01032630322022112
-0.02160935358122349	0.003300934295605698	0.01890709591628558	-0.02742378072033194
-0.02328285890899816	0.005189514995172364	-0.004546588878363737	-0.003549726216234249
-0.04156582126672646	0.00137545233014509	-0.01085181570898217	0.009073664734228789
-0.04164495521907315	-0.005873197527007087	-0.00725968841254585	-0.007864570947156143
-0.0196985097951318	-0.003515335787751976	-0.0102902461975498	-0.03007096309106047
0.0007513367576358598	0.004060140243789223	-0.03154015978141379	-0.02291956193286561
0.02549067889922266	0.01458755960752714	-0.05345449314953884	-0.01235652245219393
0.02833009038710015	0.02683593053852654	-0.06511868545575018	-0.00622015990237851
0.01456842416539313	0.01181797430136815	-0.04353073946248678	-0.01633601500430592
-0.001301240243540297	-0.01270605182607527	-0.01767282603750369	-0.02155898439326673
8.009021553693975e-05	-0.02703217237408109	-0.03670707767537362	-0.01267954171617564
0.007134908000465397	-0.01935264388369046	-0.004199269753811239	-0.01257832233550307
0.007875950607195849	-0.01781638261801989	0.09982441461097664	0.0007389005323062692
0.01028861296304229	0.0003924056653732463	0.1225493523490711	0.005246980920849909
0.01209202815096422	0.01869954678603185	0.0844705943472915	0.00967546804048016
0.01508401578066289	0.02267321575142865	0.06313972899122192	0.02370937841645555
0.02545604839997562	0.0470021026212274	0.01858732431108499	0.06834308120241858
0.01504550579131541	0.03693716651506164	0.0001522047509529599	0.03233657527767154
0.008887164187765887	0.02123611221444779	0.001423209383631307	-0.007336071862663598
0.01720486880308562	0.01940210379284417	-0.03219599897918472	-0.0416724019025639
0.01853096305608065	0.007757240278259757	-0.03566889261061863	-0.04808548360956359
0.01476082094363848	-0.007016307220656633	-0.0433914486816311	-0.06660790152963909
-0.00709272981689902	-0.01919737936440625	-0.03230654197114675	-0.04278389486505081
0.003231613304722965	-0.01508291148322193	-0.03266158378367287	0.108234251105412
0.000459593902605338	-0.01162408277094368	-0.06472646680360369	0.09961817591192963
0.004026726518110307	-0.007209775909462725	-0.06099361316860195	0.0285696263721895
