0.008571184484994155	-0.007906520655154977	0.002181736508351119	-0.04813858178933385
-0.02481174557818364	-0.05778857297514154	0.009081988209667267	-0.05074842419463169
-0.02483500107131954	-0.05336553793955785	0.006549697279868165	-0.04344864160218492
-0.01803901139602633	-0.04441309468611086	-0.009018692497035616	-0.05025181332428732
0.005143275289761304	-0.02558776262404767	-0.01896283094423159	-0.05013303053817137
0.01576018733518619	-0.03070296869494245	-0.005176566905124275	-0.06658966183333856
-0.01419279549572124	-0.05099531815679258	-0.01405244880588281	-0.06673328787229184
-0.04102712895488601	-0.04770311428193535	-0.005513517272048414	-0.05999345291765543
-0.02486842570953118	-0.02607776959636797	0.00278635273262447	-0.02406397439425351
-0.04238347404917164	0.0005506128589574694	-0.01000269158199203	0.00190239663961345
-0.04663870979655334	0.002643890200574528	-0.002196353083639514	0.05896806870756741
-0.03518244824006096	0.02602510264370828	-0.004502991421907393	0.06273803892675126
-0.04538714394120398	0.04030150631167705	-0.006049550733742927	0.05204804134875352
-0.05347901405331051	0.006197550503814146	-0.02137533267990591	0.03602697256527805
-0.04220848485435286	-0.001402921691204712	-0.01268869031065061	0.06739379163667832
-0.02357841384970064	0.0215824142628226	0.02422209125690448	0.05885125061397624
-1.532046919425721e-05	0.04575632993618956	0.01240766916923011	0.05572795789816997
0.02385726401016791	0.0559680833537355	0.005909256100821518	0.05467072457836984
0.03575309805027584	0.03142435981988149	-7.261081645435207e-05	0.0469181335192255
0.0276883009880093	0.008556889574683981	-0.0183547593032899	-0.01012753371776303
0.02510962542622516	-0.007308232385172548	-0.02098620965666097	-0.04072459524201473
0.02337062961283866	-0.02655575208963045	-0.01333754213944714	-0.02521481433396554
0.01794791784357404	-0.02742693256473052	-0.01335851922061349	0.05567493810454983
0.01540553471254591	-0.02149726562671034	-0.03221059846301653	0.04703781904006357
0.01176152186801057	-0.01410164348358562	-0.06323288217224696	-0.01853649467236112
0.01152591091335785	-0.00111036462261322	-0.02336767232995401	-0.01004570535098845
0.00607986444053027	0.02912192957004473	0.002265802616557604	0.01013883818150628
-0.01191369699773395	0.06835264599496832	0.01677587649886459	0.007582833609098416
-0.01199628219350621	0.07559090119446135	0.03229748519344708	0.006081761896147087
-0.006699341800340177	0.02774630777684454	0.02989012199424352	-0.009351924409290486
-0.002835076191260384	0.0007006303632755115	0.02221549687058096	-0.01668592353431053
0.01429622330193776	-0.003987955811891586	0.009520199848995327	-0.02000917865288954
0.01346956471077508	-0.01192000391634628	-0.009969796229044925	-0.05341965796844253
0.01898481125391439	-0.002933464685976044	-0.03886963178197068	-0.07053158479423111
0.01861280896921095	0.01073642614085851	-0.0309253549861081	-0.048501730620526
0.02413859445429024	0.007608518633434215	0.0477882583437049	0.02448213009069593
0.02361092680091232	-0.001771109370348577	0.0428469991374243	0.07421277333632542
0.02775825326882023	-0.02965607181428526	-0.006166346051293359	0.06444193541540082
0.03222737285321373	-0.03530455585707631	-0.02905334829149062	0.06621145310943509
0.02553589862536249	-0.01609173743082189	-0.01945181585924211	0.04342776958642282
0.0168865363196673	-0.02444343941529888	-0.01784477871846295	0.005448379984234932
0.01984027315137749	-0.03311657464006748	-0.02743172908975534	-0.01155093032271208
0.01950570129138176	-0.02767625437239161	-0.01693106445510408	-0.01689381336669662
0.01791864854513391	-0.01938432568038384	0.03784975193509311	-0.02026545622947046
0.01127403138689755	-0.0182460465988994	0.07969530942490938	0.0002179952299310927
0.0163327084624106	0.001610966374605492	0.06394519508933842	-0.02208870161759782
0.01570930493159218	-0.01920619081645004	0.04010411380797276	-0.03687032952030281
0.01576061905429916	-0.008140786554832904	0.0144175295981581	-0.006749668323894123
0.005553930095832472	0.03357750528049499	0.007887461626175691	-0.02608425488667123
-0.0002739481993277202	0.02927787711336923	0.01064223791847831	-0.0449502357922673
0.01585350752641019	0.05437111789481756	0.01169676985202522	-0.04239575779163281
0.02088213178759563	0.06900181587520295	-0.001365486603109024	-0.03603133736810701
0.02285942883231657	0.06562321851921224	-0.006065733804589937	-0.02180056993051072
0.009626408486810949	0.04053750864361269	0.003452418957206198	-0.01897149533165142
-0.01402504247278829	0.000926609546417087	-0.006377944740580906	-0.02984627237713733
-0.01910921991216984	-0.0343219456123593	-0.03079774834478741	-0.04687646420640636
-0.01948985833554543	-0.03776981252734528	-0.05720660027491948	-0.04780720194967871
-0.01837114331321941	-0.02634206182482634	-0.03200553536650185	-0.01501801392983739
-0.02310521892371825	-0.02949112182135637	-0.02841473738928304	-0.002072934313297045
-0.02750346920809603	-0.01556004230989439	-0.02598394921376874	-0.00160477285905835
-0.02714339752075748	0.01167143134688787	-0.01423370614160295	0.01020244230107943
-0.007702922409925272	0.05416525963066886	0.02612948835723942	0.0387305754186751
0.014624071571381	0.06900188582494587	0.01085174282675318	0.06060612064037587
0.002149040892278103	0.02823421819582117	-0.03672125358604013	0.0519930489866867
0.01034682031801167	0.006437695235578714	-0.03200532984145268	0.04903660579360256
0.01228932762276427	-0.0120621874218362	-0.02118758246160274	0.07558248087605739
0.005009463695776492	-0.02773194363729508	-0.01748478852585723	0.1020728090230182
0.00144590271686071	-0.03819947649488172	-0.01611664991834724	0.09888623194313846
-0.003046725742101497	-0.04264855615608421	-0.01534820684184665	0.0413002149686602
-0.01836223030311114	-0.02612508277922826	-0.004798087336124106	-0.01640180950541666
-0.05143437980737146	-0.02495551422917239	0.0007867378134297757	-0.06888397361186446
-0.07496991404996386	-0.03068918244056901	0.003206631575967392	-0.1516705485283611
-0.06469616772672881	-0.03504910060878639	0.01272857824395661	-0.1190869708569866
-0.04532857496542189	-0.01895381987453866	0.01588322878928271	0.009275698360624028
-0.03651518611544121	-0.0009259065174439227	-0.01083775067074444	0.1394298398617194
-0.01954102936269087	-0.01578041681877246	0.002185953801769417	0.08546750113558015
-0.01594841480825921	-0.0386292111384489	0.02422530300922711	-0.01547018068112993
-0.00392848893646049	-0.03236767202837731	0.01937659603334854	-0.03632810990739315
0.02166480335915035	-0.03128749528082108	0.02466571913557379	-0.02984319144259139
0.02422053898881609	-0.02739376777617841	0.0271079953133102	-0.0114963689928194
0.02688173122521579	-0.01771763572774258	0.02991349653525775	-0.008241680310231963
0.03515679739065954	-0.0004291546399292846	-0.0002223009264741395	0.05867166840257727
0.02579422561414934	-0.008398508402033033	0.006987235156158903	0.100453493226768
0.009803387298712392	-0.003503149208887159	0.02836932472706198	0.004402924203353876
-0.00293904925027252	0.01947837374287937	0.008113441518531342	-0.04254565987249086
0.002267869934346084	0.05222971931474511	-0.006143740875854844	-0.03634604016155369
0.004978283230784539	0.06978639379074809	-0.009722967029826035	0.03778731953774914
-0.02118519842137589	0.06298714943986569	-0.01026026758191928	0.005765298467205129
-0.02633109340282937	0.02896947556501464	-0.001269851434259183	-0.004820522156484361
-0.01525020947589456	0.001124427330057486	-0.01104864481930604	-0.02153352949956374
-0.00332451328913609	-0.01083984839303879	-0.01694819633390717	-0.08296723745278305
0.01466161317647297	0.002066877128405141	-0.003871506197973443	-0.1168085367781613
0.006271202792256292	-0.001208702217547024	-0.009063003517555641	-0.1186557981887477
0.007040008766901897	-0.01181313848699417	-0.01237374361882531	-0.05019926111033688
0.002202984985729357	-0.01881434531344353	0.009415199134028326	-0.01334243340066344
0.008949708828059079	-0.02600769743849519	0.02745346775711458	-0.004489562127715941
0.00509165812177353	-0.04301307551438188	0.02741694397224287	-0.01952920256834422
-0.01626165080367889	-0.06184048850244115	0.02289919409024789	0.0516898620374344
-0.02412484861985144	-0.04894104949119321	0.02005974683505702	0.04345287072583209
-0.0001384576133879312	0.004907497839847336	0.003850252047128564	0.007851452799735842
0.006714084384845689	0.02823462631242802	-0.01885249510023983	0.02157563085040432
-0.0005706069203643476	0.03674565920341948	-0.01739268676119564	0.02176881231993354
-0.02617795170777234	0.04814307029543805	-0.03270012828641277	0.01676552119544103
-0.03295734282633957	0.05343316184106329	0.02173683682220988	0.0319198844865891
0.002109536270175027	0.05451337206289153	0.01291899923226777	0.0139027486423091
0.002466145005008098	0.03454897194886915	-0.001155753743771799	0.00865594302497007
0.005131980125883955	-0.00461158318308312	-0.008801877496751946	-0.00386204776123729
0.01031627647342393	-0.01974258614724868	-0.008732599724786547	-0.01442919402301243
0.009035262930273803	-0.02434342148133712	0.004084218198798261	-0.01101887650451227
-0.0003721707121765597	-0.01918360947373039	0.005733891036504428	0.0008366522872493936
5.88122050900787e-05	-0.01481031416563784	0.01859034885167501	0.0308325426928746
0.01999239190644628	0.00168233910962045	-0.002877804570084665	-0.01627997926053577
0.01496711142812372	-0.001494144014645776	-0.005896627198687584	-0.02025753586084912
0.002063039116887355	-0.003180760528346554	0.001439170775426195	-0.0002115818880526263
0.002505411325175629	0.001971602915256613	0.006404176927743504	0.004813862378760487
0.01858414197587587	0.01302702599838336	-0.01489196358122435	-0.0154571047010517
0.0294359830928432	0.009894467375583865	-0.02689624122333939	-0.00913660344515377
0.02691518775594087	-0.01469449737092466	-0.03828130546744767	-0.002439959261634456
0.01632013888457296	-0.02141770547506777	-0.007479113110004806	0.01454323460717902
0.009183011470459487	-0.01579653987202383	0.001445762141815984	0.01439278295788614
0.002640042996772459	0.0009131030994811897	0.008696416889138988	-0.005877993017978552
0.001023547477868299	0.007272506696161687	-0.01305499968434101	-0.003655111921668511
0.001116415175949183	0.01566423032095556	-0.006735847362113253	0.02576162226472399
0.004610098297287386	0.02338673713862692	-0.009615166651300263	0.03366962716466337
0.01491709978905471	0.002364368218736914	-0.02306720762356794	0.01997077711722383
0.03074264526298823	-0.003634364860675495	-0.02246124595363277	0.01011318041273142
0.03980125538327394	-0.009843206786094129	0.01133139385984359	0.02334114916592641
0.03470557294589428	-0.01889121047593527	0.0155663966383346	0.04246481488702031
0.04525890633006349	0.0002494710273294959	0.009222909333643175	0.01468648960982788
0.03959895965531234	0.001983202745705418	0.006300108821321866	-0.01982626611969163
0.02698435241072379	0.009854493941925089	-0.003921605049513012	-0.003154826657965705
0.01178986973032312	0.01608729690191868	0.01147231778001103	0.004782803964259078
-0.005901783564505857	0.00245571203094648	0.005087188695494342	-0.002278812171202024
-0.004376816062122041	0.02128052852137783	0.01164296238293226	-0.01422507092330879
-0.02319999535212505	0.02910493550236219	0.007157435582265182	0.0001993611415365197
-0.02995078655226536	0.02301283394917921	0.01668304795821133	0.02087936268987484
-0.05141812523076654	0.01632079119618773	0.0428131851907607	0.03855783453442336
-0.02581735927733993	-6.295817267224424e-05	0.03809004285692488	0.01513819482874064
-0.03184474815331421	-0.02028573889277939	0.00130178190896535	-0.0142804527941673
-0.02294823116007648	-0.01569490569822015	-0.01811848629620665	-0.02612171881934752
-0.002123209913597707	-0.006715331914325784	-0.03209977162588809	-0.0415790875659548
-0.01173875295279641	0.02667271112533251	-0.03083275723298726	-0.03628508684359295
-0.02282522507005683	0.00503722226298095	-0.01061060234363882	-0.02286074107955178
-0.02188252244419779	-0.01216143760246434	-0.02224973071794077	-0.002748410006796899
-0.02535835212048301	-0.01161037848294411	-0.01273950626777854	0.04174991708819767
-0.01606833702980515	0.02231038711114634	0.04333773276651422	0.03459661479351405
-0.01068631392396457	0.05217037335715211	0.05826101601951614	-0.0168142202807152
-0.03072095082716081	0.0321870199533669	0.0157642986518237	-0.03467896716127405
-0.02961816202440943	0.0008759536507874071	-0.002819381578235941	-0.0276267280039378
-0.02972116991096064	-0.003906605751071723	-0.0172937193098682	-0.02783638089935592
-0.01225891748912858	-0.009645140955570848	-0.01308177766461224	-0.02303805754009758
-0.003581738876091008	-0.02756258965412017	0.00432334620979738	-0.0132965650832732
0.004424114347096635	-0.03185897342643812	0.007300478265586051	0.04341459913373542
0.001166697440964149	-0.03335549099800321	-0.003690081249558708	0.08848787274020196
0.001218773290967503	-0.04306450125075984	-0.007129063296694613	0.01876790672286673
-0.003386502247542779	-0.04180886690324453	-0.0359117979909183	0.01061645345268818
-0.006708050013819388	-0.04375793911948522	-0.02517818414905773	0.03362212125758492
-0.009865886570752672	-0.03937404310510741	-0.006113440759267825	0.0361245292809937
-0.009061390015349004	-0.03007321431952277	-0.003818604866500627	0.03607663868298867
-0.002749598328713995	-0.01333517352692052	0.01507970686001231	0.01369061230409973
0.01211431317542515	0.01782932343216617	0.04753431424118749	0.007796074165049688
0.02559782979120002	0.05125175512127701	0.06674976878493694	-0.006051243721381918
0.03017033142617905	0.04395906306051894	0.04266343292801206	-0.01624926333786678
0.03299752404729204	0.03395481187688568	0.01325467260955327	-0.02443415651525792
0.02446032798673775	0.04411045783950206	-0.0120512203490698	-0.03529898924484004
0.02405312331154237	0.05005110538276727	-0.03284528173533716	-0.05381493746083271
0.02573405185328708	0.04753646962805834	-0.00893381599710113	-0.02958486528244069
0.02056059982341703	0.0207224662698943	0.01296682477965863	0.008336444738481922
0.01135826489121094	0.003260475027530141	0.002151420766230593	-0.02676989252151925
0.005264561815548972	0.002511123986620142	0.002452100148571223	-0.02906951290060068
0.02773200837672399	0.007733007762132493	0.006119377820388509	0.05562010027108372
0.02217703461505261	-0.01048999217101899	-0.00432404936283545	0.001463078952822092
0.003678972548274447	-0.02580596250667722	-0.009934855394406205	-0.04683948096719866
0.003082974449914986	-0.02352180173102864	-0.0008250181313744605	-0.02468766390293006
0.01202873585286892	-0.02225063627262721	0.01899366293584031	0.001595217483003942
0.01934262933063969	-0.02050208053210803	-0.00732515071333875	0.02881199327477535
0.02322256365403091	-0.03269045039686826	-0.03760552103753066	0.0007218769308250704
0.02063711397369779	-0.03903881993473361	-0.02624749779024169	-0.003015818413284441
0.009127319102950799	-0.04369396698001016	-0.01411031376520124	0.0185561241550957
0.008513058875848724	-0.04580968831652268	-0.01484386567139945	-0.06690037368005479
0.0003090611520378929	-0.03383281856405931	-0.02962974373081233	-0.06628472244359582
-0.0115417555101252	-0.003779715674967151	-0.04516244645596042	-0.03307435398098652
-0.01759604919588467	0.0127779785274354	-0.04350894942909418	0.0004118890249493233
-0.03439102421194253	0.003269950922605399	-0.04374484387732473	0.04144811310128178
-0.04733852112664586	-0.03021429228996637	-0.03977004053050062	0.02182849397636303
-0.05467270923706821	-0.02881817237255158	0.003427008461882985	-0.01327598736135246
-0.05529189269962118	0.002493174337517032	0.08170035505056755	-0.02895292556035421
-0.003824715850872408	0.03870592464765147	0.04710036171833	-0.05052661465347976
0.0004881879487994016	0.02190503102402256	0.02725559015924296	-0.09960457007273678
0.009770535762060372	-0.004403661753057348	0.002542593806471751	-0.113098151063268
0.004897319260566697	-0.001902999728053477	0.008899739392075369	-0.07166915494657795
0.005546590969082185	-0.00808687623060563	0.001996798037075607	-0.03866778980468297
-0.001264796408049988	-0.02275655885135134	-0.03140384496390795	0.02632573568451958
-0.006952701353866816	0.0006310640228971622	0.006493115189406595	0.04756630389764448
-0.001189060048627045	0.02581720585876856	0.0405400968421874	0.05349482865104042
0.006094693854333284	0.02390561833044865	0.03013871136863291	0.09573229803491654
0.01116210860733732	0.03541475847293418	0.01308171063324005	0.0658370871793947
0.01595842311740403	0.05982033081255107	-0.02123538541977773	0.01304323475067492
0.01893519405310543	0.04958897325020586	-0.01746901797987917	-0.00793510133348007
0.01352061207190726	0.02188110712469528	-0.02280959189281173	-0.001887087539973071
0.005144488669350794	-0.005757206581663765	-0.03071841998426578	-0.004546162569374337
-0.0009145852539404835	-0.01609963145115433	-0.02845504516292523	0.02009989673957191
-0.001028398711443086	-0.01760473213639148	-0.03754808151874273	0.003921442747000493
-0.01027516956084611	-0.01403036113289418	-0.01246936850269987	-0.005068848969797299
-0.03154998520171705	-0.01117661804429322	-0.006522453229336054	-0.01562053700268187
-0.04993102095048465	-0.0157389237067412	-0.002029060438192336	-0.02099581124031049
-0.03319310544487925	-0.02698524257456307	-0.006771567011828773	0.0006797583358062803
-0.03232481875431106	-0.02223798243122555	0.0121038876116123	0.0687562503036929
-0.04852342080232444	-0.01814192344642599	0.02188872606984148	0.1532409321317209
-0.0506785984640055	0.001185968938085741	0.005364892483285471	0.09354791377578074
-0.0526404556829345	0.01499640179145197	0.02602454850408073	0.06446131836382966
-0.03294400566341473	0.0364263441669912	0.03069617660787704	0.06112728494918005
-0.003467921877765603	0.03246706019819483	0.01965468358383809	0.04360102857583907
0.00714080909981144	0.03362253243218452	0.004093064845419265	0.03064475014958772
0.01959683825830201	0.02775246774583525	-0.0215196082353116	0.002394133469926301
0.02552284481951233	0.048816078836022	-0.03074694879135791	-0.005501889564314356
0.03680065951160764	0.06172389148842843	-0.03246559393703866	-0.00312166295010567
0.0291162475645032	0.02515285988145544	-0.03770430644681955	-0.0008570178500034392
0.02437826308026859	0.001593912762082702	-0.01359368986685657	0.003279455198152226
0.01871075043503674	-0.007976213492947396	0.02818386596962971	0.001128932444463583
0.0106085799870161	-0.02064928315062114	0.01825728047192178	-0.005768850091832748
0.007622656062515509	-0.02560358150022359	0.01960152109584622	-0.01312433655139876
-0.009497897976955542	-0.03843179767591989	0.02538684517573757	-0.01361793703691478
0.005433456899366382	-0.008825638654383364	0.007537345584665452	-0.02498626210610683
0.02480909549053727	0.03303383595009213	-0.003400926110719586	-0.04339679535262634
0.01791159024442954	0.007983191266970686	-0.01263120724041256	-0.0451873808579861
0.0239761164780609	0.02068478754565746	0.01727342996719894	-0.05002212673759754
0.02898373835464074	0.0340858180951293	0.02428692622801712	-0.03203329486669593
0.01529756714078106	0.02204583312905511	0.015636009819596	-0.02227644590442264
0.01141169793645017	0.001304471934926691	0.01928118841461437	-0.0123682366051072
0.01375099259441889	-0.02468620295383982	0.02612589685355686	-0.01088150187967913
0.01221693788094334	-0.03106807645345102	0.0485512006276549	0.002225719106836779
0.01927870568717889	-0.03075590227065693	0.03212978337577899	0.01079770991807851
0.01808327762395909	-0.0116918562852131	0.01566880184549464	0.02778416276408581
0.01186617021684215	-0.01738438565254781	0.00279605270387801	0.02420871906161043
0.01177007273241111	-0.02687240541969601	0.006793058810789914	-0.01438563599077949
0.00934505220719843	-0.02213068135064692	-0.01238971281978764	-0.0334754879567171
0.004125977625410424	-0.01800859468791129	-0.02922107047862785	-0.02071733692573674
0.006983026777339755	-0.01421061249391635	-0.03603607604735243	-0.02148672660707595
0.009098356024884579	-0.03218684345877872	-0.03892681970241456	-0.01250602025309371
0.002185246890166151	-0.05594586948020961	-0.01657179387737544	-0.00118452893078512
-0.005382197884128238	-0.05900642638056774	0.01053253523851202	0.01060000156292026
-0.01286256328880449	-0.05620342802759146	0.0152085028860905	0.01937010294897528
-0.01272406792799258	-0.02626193006600792	0.001017128086308458	0.02314199197782514
-0.006965687810824994	0.02587790416421585	0.01222319408457861	0.007689304010575212
0.002176982464904644	0.06286939833504347	-0.01248825362929646	-0.0004624922680276588
-0.01373974277492715	0.0384464946524474	-0.002655867092322661	-0.003075732021591756
-0.02279109191071128	0.009034281279422169	0.0270313133520624	0.00112029577404904
-0.01914513429980588	-0.01769262958147084	0.01704568907462887	-0.01593217120964798
-0.007168677923865482	-0.01877790509480003	0.03913099682229622	-0.02871709171817394
-0.006872465896638208	-0.03632893897783752	0.07900684744743469	-0.03682366103978624
-0.01509723963211087	-0.02400291387973195	0.03850737228069714	-0.05619326974068908
-0.008967014465315525	0.01228106946869236	-0.02334027035265243	0.07127145506174501
0.005627381459488576	0.02858146682797233	-0.002328644529806627	0.1350943878841196
0.02177155533559528	0.04066726542008669	-0.006609433059015285	0.02298311234112212
-0.004966979645426664	0.02920020773685102	-0.01582814439639164	-0.00679255205382036
0.0009415308769322914	0.02267959759658656	-0.01790234274233118	0.001473547891469472
0.01519162306346935	0.008740788673232313	-0.02138451039104934	0.007976693814959135
0.003310207721695405	0.01024435439400494	-0.02830476397092582	-0.002881079683473015
-0.007531080978886031	-0.005250201428129316	-0.01290625467359918	-0.005899389248550175
-0.01088762947196808	-0.01420551702026921	-0.006883164129853353	0.01014153887293738
-0.00643175720975823	-0.01775640443412614	-0.009652357071641504	0.05656945658299541
-0.001656173565701687	-0.02372249683198969	-0.0252079972170067	0.04020936549744995
0.001725987154137069	-0.01970064233334552	-0.03490779180697506	-0.01763920666772759
0.004154907945237902	-0.009487231708140057	-0.036619672045448	-0.08301140519283451
-0.007368506579437295	-0.01698008822971272	-0.0279215541992533	-0.1907635002204021
-0.02413293257981611	-0.006151368268481349	-0.04322900317065069	-0.2139993109863034
-0.02359854091889668	-0.0149436299222114	-0.02517953352978635	-0.09873330223390776
-0.02101558770629201	-0.02839354525173469	-0.003073303212773569	0.03213642635671527
-0.01816287844819331	-0.02572867167532664	-0.00385018943692463	0.02774964320968483
0.002630491237902363	0.04193841617883455	-0.05302646772729366	-0.01117761030627431
0.03243996732669013	0.1356164826117811	-0.03764703706097623	-0.001937000002341432
0.05094110383732858	0.1195032786524187	-0.01870833655375393	-0.03391387064338461
0.04723038940198396	0.0774456843381251	-0.009075678266300806	-0.04841325752595393
0.03023600241984252	0.0436159652323957	-0.02993192848827352	-0.002644558092173521
0.02288753746256584	0.00986428609376121	0.04640826598316235	0.08531611871603648
0.0117091484253414	-0.01817777981993862	0.07399882603386534	0.1110715997389731
0.005862124518264572	-0.04052629135512134	0.0491000763787363	0.06555711443609086
0.002322122677611426	-0.04029385601874041	0.03787560318487579	-0.006076085288590862
-0.002187296741851346	-0.0427691260940147	0.02977331523712	-0.003151459030161894
-0.009001194887824365	-0.03037733696123225	0.0374136971018433	0.003578768930636217
-0.01699146230466	-0.01015418334155072	0.02702766692369979	0.007791062206303798
-0.04224726820394496	-0.009620226671981849	0.01591205755142523	-0.01136029350812104
-0.06074672379969614	-0.01463798320423577	0.02202759708402037	-0.01355820743542809
-0.04194604872085005	-0.01795282550681019	0.03676261464245508	0.002878854445164876
-0.003948586327794643	-0.01828867416128529	0.03696845910451487	0.02051910914569031
0.02742733394975784	-0.008125044488306525	0.01510886128204091	0.0008188679158912289
0.01382620878476667	-0.001514609020866907	-0.0300358438363045	-0.00553573528058286
0.002951148864881535	-0.009979558193746251	-0.05977495432625041	-0.00751416782200815
0.008235659670625929	-0.007770917654631887	-0.09256595772342149	0.006403545296121511
0.01782739594153237	-0.01211435680451666	-0.08059227359047023	0.003239889219067836
0.01726530063468308	-0.01908808461124733	-0.0312132560240189	0.0446465122403639
0.01177255736729893	-0.01345065061201699	0.02949316842510549	0.0721185530668742
0.01233669656875394	-0.003372289136467177	0.03647719814652321	0.04453601598612273
-0.002538984297325022	0.0006083126897392354	0.02793118822475632	0.01754708884052823
-0.0130416166053545	0.02418922497463228	0.02891290352239646	0.03585113066258288
-0.01882424960607046	0.03053462132582279	0.01399128973102042	0.03123388997687618
-0.03943086496055538	0.03487807649216825	0.01012836849898453	0.02625199768523706
-0.02490858932825714	0.02820742644820894	-0.03676316284822115	0.03682727183258198
-0.02157954482178392	0.01005920795301998	-0.04674806965319948	0.06164101781568069
-0.02698343689220064	-0.01076106958057301	0.01815632854690486	0.03667636901913997
-0.0216018491660916	-0.02577522873474929	0.04112216317575899	-0.009836361203087911
-0.02329468156586388	-0.02662074583013893	0.005179274696611553	-0.04116236170426659
-0.01685526835650937	-0.01448259747754886	-0.006455020465757153	-0.05229488895547422
9.077465687389117e-05	0.03752514270249387	0.01305720975529149	-0.0366398679665351
0.002898692978249414	0.0004000830019309734	-0.007521600155930852	-0.02482556372083639
0.001746485170556213	-0.03204267387822123	-0.02448995992651645	-0.008858356146831805
0.006427427541722521	-0.02803820126886806	-0.02915926246448943	0.02121754682016668
0.001181979695562077	-0.03152457877520159	-0.02694309131673314	0.01561252735308349
0.009591627361175775	-0.01296000710416573	-0.01471366036305677	0.01581511527984771
0.005306585528864942	-0.009208867773277367	0.004822012113389548	0.02528729925671069
0.02349046711915461	0.0005909235763337747	0.01882920464788844	0.003631653913180811
0.02220381633804384	-0.01037175913002748	0.01510061399313585	-0.03996236896965419
0.004237011810102717	-0.02765926382249329	0.02349615143445041	-0.04137130213853633
-0.01260621489886094	-0.02250915610940443	0.02540359077494114	0.0006625176066282658
-0.0003377175530387242	0.03440274453046958	0.01218333981979581	0.002929997482441615
0.03537541184758067	0.08130542402549873	0.02858708828540871	0.02625602358173999
0.04419254968183995	0.1101278632725297	0.009284732307871177	0.07951368237678259
0.03935146994126255	0.1763421517431849	0.003012716643565565	0.1447181637470089
0.0182115108225497	0.1531104470317023	0.007469058333522629	0.1231944574063048
-0.006283348534638669	0.04948590784361197	-0.0008104654520907036	0.07205420579861514
-0.01318755146501461	0.005382775427929666	-0.01090589273285305	-0.04169914838261055
-0.002499151381190961	-0.01998361697076104	-0.02403907828145844	-0.1072345796949226
0.004198617971753912	-0.04461323760893053	-0.002694424072623363	-0.1400925900599444
0.001396937828235226	-0.06464851641044084	0.02126207550163424	-0.07774547014412828
0.0006600310929495113	-0.08326775592404628	-0.005753928830140316	-0.06224219765085646
-0.02586271369357769	-0.06815417240427882	-0.03998735908460831	-0.09707116912642524
-0.03573724139439	-0.04424167049309187	-0.01640825546513236	-0.1205113562958455
-0.01884467147474584	-0.03505329073664173	-0.02682343484598963	-0.1031890314040227
0.010319648430377	-0.01614249124118628	-0.007203844880289407	-0.09983014681607748
0.0145894377314859	0.01555192371989999	0.04941452671396506	-0.111342415033765
0.01875659744023886	0.01461131753629526	0.05024554931258676	0.01684979325993195
0.0300485016444514	0.01408064009041875	0.02089372274692898	0.09123594539327957
0.03054810001582077	0.005332282884072743	-0.008227815568213139	0.1368407739419591
0.0238057785586271	-0.003958133111905223	-0.01914319236856193	0.1044310636936899
0.01875304271934477	0.0001826198566955965	-0.0008146032242808913	0.02959681985184101
0.01050754642085309	-0.01644028630524177	0.01210261471220254	-0.01455901290570143
-0.0001067857038846683	-0.02478017012265045	0.0189350178813396	-0.01997957856739735
0.001893920239036784	-0.03466253911321766	0.03304339057178474	-0.02156003720723067
0.004216390961583258	-0.0346969845778601	-0.01592091784333112	-0.01835605347834389
0.01506220944824798	-0.04029954709095235	-0.02650424062395447	-0.0184382960628864
0.001918453624999151	-0.03859962224477909	-0.01214182633939091	-0.02329255111612267
-0.009931327266726048	-0.02989942314119227	0.004025013423137516	-0.02717955827979597
-0.001901170499410403	-0.01425423783470096	0.03581727170751128	-0.024953451858026
0.01470616653262937	-7.853082641452744e-05	0.03863305785301743	0.02551123001578792
0.01569896433040949	0.007289883840842185	0.01622825031324842	0.04069731193191319
0.01965634596445689	0.01979703080663464	-0.001185225719675111	0.003280653419723036
0.005112768958241555	0.002682367778562505	-0.01890183091758695	-0.009577813143034408
-0.01688420660614723	-0.003538016590311214	-0.004825191192855934	0.02345929129779411
-0.03993613056555505	-0.01679822480190306	-0.01204170964724704	0.0437029598933028
-0.02293926878070887	-0.02131697648677033	-0.04153228544408557	0.03331272887658801
-0.01734918792787905	-0.006226720060815413	-0.0953385276115091	0.02181860555288566
-0.04862346534409975	-0.01420105649854189	-0.06530017088825646	0.01361877811431595
-0.06231984874169107	-0.01964624164990759	-0.02378502041596904	0.01582410816305519
-0.03949310751890659	-0.003226500566303167	-0.04211760557326324	0.03943633054828381
-0.005802481717893662	-0.03292393807806148	-0.03315783256776191	0.04863746202775714
-0.006246886625733134	-0.01798992808049099	0.05790365844089491	0.03178785837495188
-0.02201037672738327	-0.01677228409281549	0.09178058451526395	-0.0005531618018675504
-0.0460657634063349	-0.01830662876039873	0.05648195136633687	-0.0209276632642101
-0.01355908788449398	-0.03006412216942559	0.03027136172984607	-0.06066013817367797
-0.007624631918354746	-0.02332389526543374	0.01132821624751614	-0.05749851020653089
-0.000617090951446992	0.0005906918852593682	0.008035517591440576	-0.04343008284233943
0.01064186270517203	0.01231782458605805	0.02797922858680184	-0.0341555060773301
0.01487903141063144	0.0620049703003939	0.01998050974215973	-0.007652604366093954
0.01559954541211437	0.08033626606492296	0.0001667576461316574	0.03672497242611664
0.01823638052280303	0.08305147489372842	-0.01364681899821222	0.01829010524665342
0.04153009684953166	0.1272025847928473	-0.02581152941100303	-0.02636331063683932
0.04178327625382718	0.1223602906218585	-0.02174733131836024	-0.01215123306923189
0.02900427501848349	0.07535159601861169	0.00090876726165108	0.008097672870816664
0.02371000783364959	0.04395292526929	0.03457798819611855	0.03631137683278875
0.02452284083681261	0.009105734078400316	0.03167973122471297	0.05450185281189471
0.0119541269888737	-0.002973251892635241	-0.001623543176562289	0.02855390115835547
0.006100125981421872	-0.01383496818594999	-0.04509537895692422	0.002847054824909296
-0.01618537329903696	-0.02596531059866518	-0.06272382259248231	-0.02168780857261201
-0.0213943297060572	-0.03702580574818302	-0.04209298914605186	-0.02520605917459265
-0.01213373338211324	-0.04158261865769654	-0.02234403024856145	-0.01676612767434569
0.005637757395375493	-0.04542393246119474	-0.0133341437108719	-0.006385706188264226
0.003350503941207024	-0.02813913415509149	-0.02256798842238769	0.005773608534470977
-0.00294749736713977	-0.006241551210972387	-0.006250094605297123	0.03394805146280018
-0.05496724553413018	-0.01982324806427689	0.01221558508988362	0.04734955711025386
-0.05889396176659287	-0.03239864043715503	0.01758104435330169	0.000444311119990418
-0.02525360830230578	-0.01084972554044628	0.009421662110298989	-0.01955487633561732
-0.01103882552869842	0.002363947795834724	0.01806640142266846	0.02526578187844502
-0.01477326177156747	-0.00379898636446323	0.01926355912924888	0.02177005047241698
-0.01768258706912721	-0.0198686400863801	0.004420683020112459	-0.05060489248138641
-0.02410423544284953	-0.02138326762384083	-0.02713246421650954	-0.0598165052640411
-0.001058974199385809	-0.01830684857579162	-0.03902423166020479	-0.04545765081022539
0.01087194885053689	-0.01622795381817234	-0.03159709404175237	-0.01470782615031827
0.01848258935504074	-0.02032387929917033	-0.01645038356603284	0.006788552668122131
0.0279851721541951	-0.02642860295465261	0.008290442768972551	0.002589519409306479
0.02542626968484875	-0.02222256896418276	0.00107673970738705	0.024795477578578
0.02497116151431963	-0.01607218941261197	-0.006094097839157789	0.1000616384102434
0.02040947483019734	-0.02333657921890244	-0.008397496120258653	0.2050230858016884
0.01615549528197234	-0.01378487780341612	-0.01400914624597355	0.1529099990842436
0.01315896612073522	0.003292240539335875	-0.006439866954053238	0.05464524091287783
0.01293473817472653	0.007779271898109333	0.01231632165312986	0.03107567408743158
0.0106386820916654	0.03073488792024802	0.01227421298837449	-0.05980515935830969
0.02031046678194787	0.05484340360874326	-0.01864936442514787	-0.1951085553415411
0.02073192967980274	0.03305720427941989	-0.02183654234993092	-0.1932729280229518
0.01951928175954119	0.03465630289079756	0.02380050916258841	-0.08325432651834934
0.01191334894240834	0.01466211545150406	0.06239161671343845	-0.05067751685914559
0.008900973246931619	0.01443538704122466	0.0720274247386386	-0.06366707204913026
-0.009910884033946367	0.006385071928096393	0.0583601876157105	-0.0587231114550389
-0.007083282415613281	0.00567924927364275	0.02009896124361341	-0.05514455496293096
-0.0105567163797935	0.005986926333290321	0.006817096901754218	-0.06314484023434794
-0.01167578803040021	0.003883665220852657	9.499943885725849e-05	-0.04338073050887618
0.003350403153433941	-0.001689909985560767	-0.009289957041800318	0.09112386875801091
0.02012145441963471	0.01532117907720899	0.01625902203921478	0.06600327899583448
0.0103260695467021	0.03036462725216088	-0.004673630526370192	0.04965412799766022
0.0005874304040744637	0.04051549020818771	-0.03545546123807141	0.03499036977608809
-0.002249157458989506	0.01603461362889871	-0.03066008213786155	0.02955336514908689
-0.002843708960983049	-0.001589675337358242	0.01096973583286577	0.04169677534274245
-0.00913515509488671	-0.005116205442482391	0.006767137186055418	0.03333942761191218
-0.00101749491583881	0.01806802723907305	0.007082779867048769	0.04337314106264795
0.005217227075947265	0.04362860108352243	-0.005715333917796014	0.050057112583848
5.449429284395732e-06	0.02081299263846981	0.01901119640123086	0.03985401665428202
-0.007029338291887924	0.0009737592658033281	0.03935994482253319	0.008259300374767013
-0.0100820153827755	-0.008238935581416309	0.04199917567375945	-0.01065793515976472
-0.0007628704412120917	-0.01024379051322149	0.04061055707930573	-0.02241313392786633
-0.002515859924658486	-0.04113573132554187	0.04447423174510007	-0.01533893855004859
-0.01032741379747099	-0.0496982642950079	0.02791288789568737	-0.01622930292185513
-0.01173398999828195	-0.05881032817621715	-0.02553734990641116	-0.02009965737003598
-0.01876878803445197	-0.061909143917366	-0.02836725861341203	-0.00423492257008361
-0.01709786189707955	-0.04930728107824835	0.01049742563654186	0.0328833398676464
-0.01900986210237851	-0.04075887928930407	-0.007433054268969917	0.01894832449455027
-0.02337756353483931	-0.04402213677281473	-0.03092641592576358	0.01633351710874206
-0.02156580573692478	-0.03080321976412642	-0.02098497472303966	0.02715224516825523
0.0002370662874531568	-0.006369083268908984	-0.01025025653533262	0.03016087376500603
0.01779318513469064	0.000367966744331792	-0.04174448067748567	-0.001683728302108676
0.01495199865151956	-0.01083994580360617	-0.03948213281457182	0.004595897582409051
0.009014292488992373	0.005784924222209933	-0.01797621254945176	0.01653001852102007
0.006902288727356583	0.06440712672149282	0.0002345767106290634	0.04201712232064552
-0.009496650794893424	0.03850599319534929	-0.002868017232805135	0.02737866978220938
-0.0133446887319445	0.0146795408663295	0.00761762577638757	-0.001052220701166897
-0.008732925160308101	-0.002754041711860424	-0.005518878768016726	-0.01224085721406337
0.002514402592796481	0.005535553583606069	0.03943438093489141	-0.04930646622070305
0.01051313916929389	0.02920238563840954	0.0246532224518294	-0.0681535494832053
0.01898492108811987	0.05443066183977574	0.01067312161971844	-0.06499869513776897
0.02406724475786666	0.08804937411016288	0.02181247996121972	-0.05995366113775845
0.01266225768565844	0.07083243835289743	0.02259458815578504	-0.05845641484844663
0.008185469997702206	0.04561784698381828	-0.05168287321565024	-0.07965187552312029
0.006431511073950973	0.02106675261239275	-0.05044582343930849	-0.03335402997943167
0.0177080046333227	0.0009995633652601437	-0.02473318413259864	-0.02197016659579391
0.02127236406228439	0.0002573039944381483	-0.008880142094408933	-0.02239243307908605
0.0212037288531337	0.003732817467409412	0.004812449526545588	-0.01676261854215711
0.00247248933388797	0.0006965356354886063	0.01664195533467805	0.008971036006946122
-0.009361124468302229	-0.02884482963703198	-0.02648279292836955	0.03813450022744129
-0.02665328206831855	-0.04730922896019826	-0.0635800531089602	0.0586264140034375
-0.02872934824392659	-0.02270202845898511	-0.04732366381929438	0.0277424247359665
-0.02371370482712768	-0.01826165800636067	-0.04855262723942848	0.02425730840840765
-0.01833424950618775	-0.03283811504402532	-0.03549294648044116	0.08646854749305688
0.001490263783299779	-0.04273531994199503	0.02018268780431628	0.06433211627321909
0.01002002777867673	-0.02503981705219852	0.08839153747056271	0.00813010052885074
0.002969054519068908	-0.03355567737036575	0.07070870434264991	0.01619549932630644
-0.01205340285818846	-0.0234924452464397	0.04876124331724462	0.07380245489452067
-0.007687939610962756	-0.02731587394259415	-0.002243754877963427	-0.03973980247500193
0.02071219966793202	-0.02554832630047184	-0.05684834286628374	-0.1377510543738608
0.02102007780734135	-0.02286347379596308	-0.08674135430109695	-0.1099722253874668
0.02068149123619871	-0.02064388149989249	-0.08336115366810103	0.004336944355638239
0.01964530602642923	0.00207093624820523	-0.04591258741992893	0.04894828351056221
0.008605608258975087	-0.02173417904098097	-0.006390893875192263	0.04551115197986173
0.01372556135948392	-0.05672465582222395	0.1105170502679728	0.009370433125070072
-0.002096798222695188	-0.07635055454311647	0.06402318862588458	0.01647233097477069
-0.000492717099465523	-0.05870920209095758	0.06616640542170299	0.00514411550382019
-0.01055036444636054	-0.01631970097368405	0.04120401984237142	-0.01637927049724387
-0.04610723222607813	0.02934183644766939	0.004268968429542794	-0.008376725825726865
-0.05332095284847596	0.03564775855041603	0.002966522504271432	-0.002921067220254207
-0.04825411952073311	0.05481168420186082	0.002263096130267807	0.01103557181135312
-0.02909001836178129	0.05278637905586012	0.0006209975176484626	0.001464681439441064
-0.03174368596516863	0.0237668855690122	0.01637120990272666	-0.03154326940082058
-0.01227727632138135	0.0166028919610422	0.03265110375572686	-0.06701273592940388
0.008354404787215407	0.02908915340580351	0.02544298833360167	-0.06074061721162459
0.01831890550326202	0.04655004625441555	0.01576311113064024	-0.0683557471872152
0.02705757707953055	0.05002878608279918	0.008023977058847075	-0.07726018093215203
0.01659018496091716	0.05374355091612435	0.01337869164384767	0.01193312625538875
0.01498472403706098	0.01578077076289694	-0.005469088344285713	0.1742910182326129
0.01196059446480623	-0.01410174613239423	-0.01012993219194785	0.07815538230539543
0.01415627879014635	-0.02897324429988657	-0.03642005811582717	-0.006973163476361375
-0.001343603606211837	-0.03892111826086879	-0.02027165821754989	0.01455632334186527
-0.009919239352979711	-0.025657247018262	-0.02770968680835528	0.02237670905094312
-0.004996093596234742	-0.01510095615843501	-0.04485601528578303	-0.003551714366661262
-0.01147084291295629	-0.001662289502638927	-0.03455977597526815	-0.02614786212534763
0.01001436100879192	0.01427104286908735	0.01640612956536088	0.01340165610214773
0.006696286422990724	0.05602263336536712	0.00997983068982574	0.03777075555062234
-0.01003878821283908	0.0622897348206018	0.01374632420863227	0.05894102211529817
-0.005793445736906213	0.02387340359333397	0.00411211787617628	0.07939648340144692
0.007779172346041264	0.004153968238835258	-0.01027395280023465	0.03656606692792759
-0.001841317821033642	-0.01466646462126537	-0.01008765405345246	0.007586110180017809
-0.02298836659998394	-0.02670829578108673	-0.01649236610934472	-0.004368757420905244
-0.01518481398674501	-0.02233038238356306	-0.008209831060456703	-0.008907078893869585
-0.005913742494588866	-0.01711871850769208	0.02864818410654545	-0.01503718808059615
-0.001659992402665937	-0.02210974070202779	0.03089483053644262	-0.01934106249229532
0.005354158708816862	-0.01941698770480824	0.03947226570928153	-0.005903780013096713
0.01331968741794225	-0.0164997388723349	-0.00337060620361737	0.003939084791042618
0.0247343167561077	-0.00874580285986841	-0.008106714171202508	-0.04849258300298924
0.02781472296955819	0.01323832822436013	-0.01513369611317912	-0.06631229419165141
0.02971334486715871	0.01307218889260815	-0.01730403366983372	-0.04186426078689832
0.02404297946502826	-0.007388858029131657	-0.01434147426796645	-0.02046870746372286
0.02421081739204381	-0.02116173450130069	-0.0101464444902732	-0.02652377036705035
0.02353947587174481	-0.02507773030480535	-0.02961240097251326	-0.005867745080645198
0.02047557229015114	-0.01862485282166501	-0.02403775851905432	0.02746565790283629
0.002152134156063378	-0.006395604718830045	-0.02120973237176082	0.02713991407475034
-0.006769955524698498	0.008276052156411327	-0.03416499480451721	0.0280138254197203
-0.01200703487771862	0.02538214694326955	-0.03819887068021371	0.02162164069356252
0.005955123550974705	0.03671681382917652	-0.02042103522462165	0.003807047211569822
0.01975377525643872	0.04233956229497137	0.02710107141174828	0.03039705259432197
0.02179750999805426	0.02930795368274544	0.03760749271309518	0.04257828107256295
0.007058358233556697	0.01792760723613874	0.02179596839668791	0.04967670480697019
-0.003274108411472383	0.007361721286081558	0.009713286615581598	0.09859172039445813
-0.01221253180429933	0.003297367024382348	0.004889556384198894	0.1155720214501186
-0.007646171842573045	0.02239245431897683	0.01902113370541753	-0.002524482908366806
0.003127704679010183	0.03280013479037797	0.02023162982387737	-0.1133721829588417
0.007734616619991486	0.02363095447552634	-0.005519485964785255	-0.07387149282169729
0.01102146845483892	0.01128758038889048	-0.04111360670566672	-0.03022162088886822
-0.006268115941855882	-0.004687346043692192	-0.0199624109697463	0.008655270697356393
-0.02459530506807677	-0.0283675745241865	0.007881709010575833	0.02344345414173243
-0.01337829553964822	-0.0337662791760857	0.03884726134569225	-0.008298180896626199
0.005197119804832264	-0.02824905461884917	0.04832902048025711	-0.01235569786334345
0.01787415799591098	-0.05269446220144128	0.03839512191020816	-0.0433319083522443
0.01911414044300794	-0.05336965303209108	-0.003085942508876165	-0.05591431051840457
0.01499031394617979	-0.05930004668602434	-0.04423881340121563	-0.08821619904696655
0.01555752694671178	-0.04601624129714606	-0.03574148536138239	-0.1599332487452259
0.02390692892242083	0.01756862441328605	-0.00743024124072434	-0.1393840116788172
0.006591536597502346	0.03678475019685441	0.01158836186792162	-0.05176942286241249
-0.0118055928454986	0.05478710003905067	0.03200255345098563	-0.0187986026136526
-0.0207514067447723	0.08478923799669318	0.01497416831954044	-0.02628554882198893
-0.02284806299701072	0.1069130326120301	-0.0009257711932490632	0.00496076642442373
-0.02779759026907183	0.0433636000604566	-0.01003619589918461	0.06964526236996828
-0.03801312051316585	-0.01010007930143292	-0.009670814100265166	0.08813366599418315
-0.03547749916522947	-0.02710344324282945	-0.01087799970100659	0.03910635891138822
-0.04605113950944995	-0.01929542502851104	-0.01959951490775572	0.03919327605588855
-0.06779683460706595	-0.009336571344073639	-0.02727233356569812	0.05160478390768924
-0.04191426208243212	0.009778902490943342	-0.004703903771311576	0.05926059555180917
-0.01951276379064462	0.006213495004656211	0.0129984055650539	0.05526633490375049
-0.006085654689710895	-0.02594817206335323	0.03997934024490919	0.03313405066786939
0.01097996019656199	-0.03543604359187028	0.04740046480967089	0.03056021722592866
0.01979717677667448	-0.04741696920449619	0.03838704181944776	0.00204163255895933
0.02230037801927916	-0.0246089499718645	0.01088348212661756	-0.02502939247957012
0.01221948563201192	-0.02284707237042309	0.01284381677239067	-0.04174220617343729
-0.002514670420689211	-0.0274871765336401	0.00295866654284425	-0.04916559980907395
-0.006400778637022012	0.0008812005149944262	-0.01608604946391177	-0.05119703349367152
-0.01790308546282098	0.01454524929553143	-0.007573345458065342	-0.04933445425816113
-0.02415875189750098	0.02964504991889693	-0.006642806721612642	-0.02501360754956897
-0.002488698097688306	0.04286784337484476	-0.008353925737918971	-0.007856262564909787
0.009601770331890839	0.02617618952021827	-0.00542769507950367	0.04291405217862626
0.02005675185979445	0.004010964895724893	0.002807586343140996	0.1043105917150848
0.02678024655490828	0.00582315336209426	-0.01625725244209585	0.08489635759025606
0.03178108868348619	-1.047875755348575e-05	-0.02691089704690364	0.05044147351178223
0.03462302927827955	0.0197236557801602	-0.03089443007945133	0.01319830685765636
0.04013259948344418	0.02798785473638532	-0.05102607185686164	-0.01256108951570777
0.04057138166044211	0.01100998299677599	-0.04285380530821667	-0.02775088108581588
0.03073129442570493	0.001232471787213775	-0.04355820478095128	-0.05524541362311024
0.009269055133786317	-0.02774345039665694	-0.0006010553209285423	0.07261749479354269
0.01950681621176462	-0.04058556137527261	-0.002165614664871063	0.07892000258049958
-0.0132719881316547	-0.03927669991306396	0.03420430922929263	0.09481313956479305
-0.03029450768727134	-0.03096337251314837	0.06685644309121037	0.02229142581971321
-0.01261697507461307	-0.00938920106125617	0.06930286584965892	-0.1134935962766425
-0.01540027340740363	-0.006340081923089875	0.08006512138867992	-0.09866813592299431
-0.03306268496327348	-0.005471104319917314	0.06577221608662681	-0.003855077978240623
-0.04399966875857969	-0.006609520996730933	0.03319674654514701	0.06398011386012357
-0.02724711852414393	0.005936809534881768	0.01858496923257622	0.02066082583032974
-0.01200794198350158	0.006905417300550066	0.009553729056216067	0.007808225153531741
-0.01083677290959061	-0.005405112123202479	-0.002370589287563254	-0.007445064966190682
-0.02159545654047158	0.003071478840911091	0.002038252169980562	-0.002666979229568426
0.006807140338865403	-0.0008956211182167297	-0.006208740474677825	0.0455699537239574
0.02455600376000018	-0.01493376139722206	-0.00531959581580374	0.04353425877959795
0.02510944971068454	-0.03239103083573752	-0.01314344212794312	0.0440989361670399
0.02589360144007085	-0.05431915821107404	-0.0337297616567712	0.0341545020006427
0.01486089680664951	-0.05484876334194701	-0.03370305159114328	-0.009464986742020169
-0.0005517377545357107	-0.0405605636925619	-0.000623484434405362	-0.08831557051822067
-0.004176748265207308	-0.005410920092983653	0.01223992482260275	-0.1172872042455726
0.01210190125391696	0.007648016006426403	0.007491052732059062	-0.1246115418801549
0.02579889440832097	-0.005885067688071554	-0.003598909209217644	-0.1059352459635981
0.02264160860936568	0.01087526810566742	-0.00412314950447533	-0.06830891807165482
-0.0129231105261757	0.02553508249629478	-0.003306441403180102	-0.02866513899944032
-0.006488870636763938	0.01857597907611007	-0.03211072229636412	-0.01349988249122236
-0.002090041679266167	0.0187304167781908	-0.02109428340777057	-0.0004628023828749253
-0.001089484643983303	0.03128845869879012	-0.01561228098059029	0.003265147673556169
0.007823770567305644	0.04496248090542514	-0.008253299617811842	-0.01134955464983876
-0.01340659405202994	0.02636809297421807	-0.00431551957078306	0.01834913236252294
-0.02712575883528807	-0.01146957137735445	-0.009431913992901664	0.05289099992676902
-0.02303033656176412	-0.02960907363112203	-0.02771948621818241	0.06262226652103087
-0.01769833458418068	-0.05280334454683044	-0.00969831547262901	0.04442633594151806
-0.0249336907820188	-0.05245972133352477	-0.02797793061087803	0.05646771439150609
-0.02728377274663894	-0.03507410778349205	-0.04721028389098531	0.05341033240688329
-0.03318973198232725	-0.004245381810433063	-0.03541975882253928	0.04576216689450663
-0.01729231922016141	0.03319181755141667	-0.04485716516098	0.01585076283889686
-0.01152770536868919	0.07191075025071249	-0.06188436605659541	-0.01248869858080842
-0.01563985452522365	0.07192758620367837	-0.06213866512988304	-0.03142447796814993
-0.01060289730151903	0.08644042505077947	-0.04539277682961588	-0.04575209276218793
0.01211300142188812	0.0802864852254431	-0.04305781274009111	-0.04437623420344133
0.02890372042718341	0.03277117837865138	-0.03600519116874259	-0.04207510642303702
0.03335071363317552	0.007011899888265946	0.04988734161961056	-0.01921939364171238
0.02830120670326951	0.006075054023765224	0.1142967963602716	0.02236364801209212
0.02448798336393402	0.01020495186174109	0.1250509068329156	0.06041378961650912
0.009861136701962023	-0.002852909551627451	0.0889015784638537	0.07006459314215414
0.01756260942370285	-0.02507259564727942	0.04446020637183096	0.1016785462196177
0.02236262545863954	-0.03660679890925246	0.01747328890825364	0.08169726069474587
0.005828982532659542	-0.02592950041841369	0.0313698941168192	0.005341127014510164
0.0008803582270564109	-0.01931764988276168	0.01464194829194223	-0.01897552176945406
0.02264549236165144	-0.01506589512198494	0.01398180626026561	-0.007146877571653205
0.02286078914917048	-0.02891304877829831	0.008374914327074771	0.000981609934153788
0.02807300261061864	-0.03398546573810114	0.01969358853741251	0.007703901109922163
0.01574736161209846	-0.03249003381144341	0.005089399402146872	0.009903422695266451
0.01775270959206734	-0.0142590034783796	-0.01936193489452876	-0.03936327990182893
0.01212858953182849	-0.01309354643402377	-0.01982855545773402	-0.06672385158956433
0.01654140732889654	0.004417051742707378	-0.03347518057471233	-0.05455333479270771
0.01858749245790834	0.01589721107177418	-0.0391907616628026	0.03649411617121136
-0.0138595469676206	0.02787932706993337	-0.05764485273867832	0.03482779633547424
-0.04805869928038772	0.02670059785306147	-0.02830730539962049	-0.06277687618901735
-0.02308951128281833	0.0157126471824051	-0.01596947594981212	-0.07332941882943171
0.005504546515943981	0.01551270224807099	-0.02042979938340602	-0.05256585018835422
-0.005913985425154462	0.0139076915792559	-0.00595986373909446	-0.03843527010716898
-0.00140669650017557	0.002167960897187869	0.02295959586150103	-0.03230988602809558
0.00544316562701432	0.007416049535057751	0.07381768089424817	-0.02770203325637093
-0.006583805558177251	-0.01159204057256204	0.06956973891121485	0.01548429787256976
-0.0007126406976940043	-0.02191450607833947	0.03060688941191873	0.1158335685506756
0.01407505538041622	-0.03186133054373759	0.03666684148999334	0.06102853467718442
0.009869305104552488	-0.0403691061035116	0.01873148624544244	-0.03324825264401017
0.006267344729936628	-0.03757942544119056	-0.0007569017182584158	-0.0386379058075777
-0.000545949162786849	-0.01386461562828349	-0.02403776904206214	-0.03531863973507764
-0.004793480823338123	0.02223238413899127	-0.002112855763800104	-0.04257501036988843
-0.01247728895571837	0.05932811675242208	-0.0221037966573181	-0.03923672426540446
-0.02408035782752279	0.04648915857145481	-0.04898511569966305	0.004276091715931074
-0.02002222371777573	0.02088722538934244	-0.06591355036627695	0.06370289872796846
-0.004303684443479376	0.0144921877525446	-0.04657750489297367	0.07781325884401037
0.0005756425789040242	0.006469615258323872	-0.01743098442601128	0.02912515455672102
0.00481272868813773	0.004832974887776552	0.002322954428725598	0.01795298134181024
-0.0001517855293655128	0.03635022491656827	0.01908601577246508	-0.01236254425352909
-0.003271602888430157	0.03346602416897903	0.02570325343383379	-0.04446023862332119
-0.009560164640025039	0.01259352553731217	8.841501591199973e-05	-0.03981930784970292
-0.0121628260202493	0.01259516206676284	-0.0102907398111369	-0.0128554383036974
-0.008649465871787323	0.01900857825878059	0.01786760259009942	0.006648549208167575
-0.01614467957505756	0.007946076523809829	0.02862316023224622	-0.0001263835175361533
-0.01762106949495854	-0.01387585258675061	0.007984459110116682	0.02237321473425247
-0.006928220540403669	-0.03557918376211176	0.008993532087008845	0.03277437460991162
-0.01163685828596258	-0.05163571795397565	0.01949000179161966	0.06478932400370532
-0.01055718004756129	-0.05343699238330342	0.01041365942662902	0.03550178676541827
-0.01204132714088938	-0.05975744852034438	0.01318696567214937	0.0008182041301488738
-0.0111690139645821	-0.0719190547063588	-0.005075043841180649	-0.0245687239831045
-0.005343522992209203	-0.04909623203997112	-0.02204015776924201	-0.0621437913255275
0.00741525021410234	-0.01567090149461102	0.004265001676026436	-0.0719011488363336
0.01018121750385927	0.07104866512378563	-0.01236849886343605	-0.07380311461474393
0.006503457763942927	0.03621896410776181	-0.01611787890855613	-0.05581962016785864
0.01318188809612054	0.0143784819629052	-0.002729816293901976	-0.01665984983664708
0.02871255881239827	0.02967350381514583	-0.02033080909682036	0.02229988295995706
0.02579553933878836	0.05031024165112798	-0.04141425869857081	0.0225572038513389
0.01751675794712438	0.05285186249301659	-0.03937265810404482	0.1019711978796467
0.01196973017501198	0.04028409389613306	-0.02271798265984717	0.1030386477901545
0.01761977714718187	0.03763235992238122	-0.007887996564250849	0.08911725140678776
0.009443126559160773	0.01469392802628188	0.01064855443670491	0.03790149690565509
0.004900507088598157	-0.01156980703778692	0.03108525436346787	-0.07067072172593863
-0.004733180426628318	-0.03493371888068253	0.02214826130155052	-0.06497203648839878
-0.01160997184845478	-0.04606177806429767	0.01240249357441974	-0.03366153503229699
-0.006504224177869687	-0.05129559865974882	0.01903373430679942	-0.01661682426902244
0.006355447456184714	-0.03076972238530011	0.006464907969807221	7.667977562264127e-05
0.008026608704370664	-0.03432252761766141	-0.0005182496295193704	0.0008561319426525079
-0.001234793433812629	-0.04233349882169318	-0.01533919729154373	-0.0111021449710011
0.001060729662869557	-0.03931409081732946	-0.008378880255464459	-0.03012472467526555
0.006858166816356175	-0.01951034153212501	0.002785600795036214	-0.06378586658918144
0.01396411266906234	-0.02642349061177082	-0.006479745902354874	-0.05687324966067724
0.01006575585721935	-0.04592920663768637	-0.01403232672554573	-0.04470290681146808
0.006688806516016265	-0.04077534334625289	-0.0082564799248747	-0.03740340387045275
0.007495462301667248	-0.03085183023006266	0.005703859104093628	0.01030000646365066
0.002339218579597819	-0.01387398108193826	0.01379644003285631	0.0523557862420103
0.01006284334733601	0.007307350498005249	0.04565848444673717	0.1556617180964167
-0.01237751222205565	0.01196484921645403	0.02691659157469943	0.05255269332431295
-0.02199107041324131	-0.01248320123865986	-0.01636954526562788	-0.02744851327252984
-0.004625784546169575	-0.002727312240519563	-0.02805024198224227	-0.007220501317631924
-0.01082331454511488	0.008789943814138479	0.009035151670614801	0.027341539453599
-0.05116479901849547	0.02055625161750676	0.0429360887113983	0.07984443271713396
-0.06306719693997176	0.0404006535472702	0.04063661723796841	0.04169225671237074
-0.05198502672587207	0.06612808664214194	0.009613168572152291	0.02501083905945889
-0.01601834144290595	0.08876689378627826	0.002162524061276142	0.0287933987841446
-0.001841816792106432	0.08042782979620373	0.007479557540991541	0.00232598528037285
-0.01049304270342693	0.027953373724614	0.009775971788168568	-0.006059290940555784
-0.01241208241155528	0.009545669110617614	-0.007468470956205561	-0.008238862306280448
-0.01644749811544832	-0.004373153446842329	0.001316063420320388	-0.04258270331141567
-0.01573463841100258	-0.01464546534497227	0.0285387154378898	-0.06462641418714261
-0.005928252004441387	0.0156879874996349	0.03363333853423424	-0.04250016182715322
-0.009047508225716433	0.01232642608268826	0.02047513985853305	-0.03031696777746517
-0.004402099892862055	0.002760521153878462	0.01013915227053289	-0.0001118915108704287
-0.010529934757704	-0.0005418364339260997	0.008072615555241077	0.001028213748509581
-0.003541819753929609	0.006271406117267658	-0.01652164761879564	0.01696614102834727
0.001187622299805137	-0.01156602561924231	-0.01001128056562032	0.02315523940884337
0.008575929319403021	-0.01064350473653186	-0.01999878047652285	0.007504746417061178
0.02128571436459242	-0.01614587776642326	-0.049853747154598	-0.0313547060681646
0.0313840717425554	-0.02718926969241819	-0.03082809026096449	-0.02577002065121698
0.04184540664337072	-0.06586656969844658	-0.01999179671240607	-0.01657481402588316
0.05204329765105471	-0.02984015398499126	-0.008677865927206872	-0.04196402424878352
0.03716702140039899	0.007722065052016546	-0.009531519726422764	-0.01841261360356176
-0.0001742347149191677	-0.0009538255742293405	-0.02593521868025123	0.128435392976086
0.003001197942402258	0.02160397885918287	-0.02293167968567533	0.1343071380519361
0.02204612810823531	0.06970869418316199	-0.02217148644734091	0.1013420484338769
0.01853790301633517	0.06290367299773324	-0.01917587594136303	0.04626027225883803
0.001372816885336466	0.01973119995538824	-0.02298383596832646	-0.005976788458621178
0.002720899076287056	-0.02333000312603345	-0.02180442260490051	-0.04253070786807428
0.005402303617688532	-0.02595002062927258	-0.02570146694350604	-0.1209104122870384
-0.01292146243013184	-0.008441843313031768	-0.009615217671955573	-0.1266027096616898
-0.008651900173642275	0.002535045148683525	-0.01353955030515169	-0.08519218445373354
-0.01589059523719853	0.001930846758364811	-0.01905438909250547	-0.03500773845415113
-0.02353378059156374	0.009486971250501363	0.04280499821375703	0.003577933236674095
-0.01972368475264251	0.002085045706886836	0.08331830105791348	-0.01801487065744917
-0.01914984751422956	-0.01778614566899171	0.06575077708776982	-0.03928178306895511
-0.009049855113982897	-0.01067535635672373	0.03832323434536455	0.01269708547995381
0.006770175587325768	-0.002516495486108883	0.0278245329868738	0.006595209208826273
0.02212566016961743	-0.004055895612275063	0.02155306413904863	-0.01177881789890864
0.03762555637539116	-0.0007878194271260586	-0.005682548910376453	-0.03212348958076627
0.03698788645324814	-0.002294050937702433	-0.02696046187726567	-0.0242745269972682
0.03212500501402101	0.004199751312789615	-0.03991742354121072	0.006580864027262811
0.03133112770944272	0.001930515124810362	-0.07900975371421966	0.02150796240119768
0.02758300099596213	0.0169174765735933	-0.03888433325473556	0.02711813246998932
0.02066357518143169	0.01490560135790014	-0.01264054379122547	0.04575555138441628
0.004264820328886792	-0.01053395049516605	0.02240364965583682	0.0699886195364386
-0.003116359187549957	-0.02812347666661759	0.03314409297516548	0.04721009752428895
-0.009465358801721193	-0.02046915681230069	0.05127972074057804	0.01356527589749236
-0.01630563704306801	-0.02066120621828384	0.04687785690928024	0.005473290015782465
-0.006016567840866527	-0.03119550936740591	0.01120321246885255	-0.003386568236731466
-0.003357091205665682	-0.02880480097140987	0.005457383240390063	-0.03009297886540269
-0.004991280844907798	-0.0189982850935795	-0.002053513566033445	-0.03098870162564227
-0.005076937230356154	-0.02114169219956779	-0.01519469013896975	-0.02555109406752955
-0.008026130299570581	-0.02065203310687136	-0.01052307102022721	-0.006767303875639848
-0.009226318783412494	-0.0124235391086576	-0.008630313593783025	-0.01236514688869256
-0.01133984705212322	-0.001641488566296513	-0.01864743073121412	-0.002234179976292611
-0.007242011993392744	0.0328405549343868	-0.02082863898264787	0.01247031018745522
0.007802324887925999	0.05219060254666633	0.004868806059205726	0.03344696463718248
0.005265598201297126	0.0420587873987087	0.06368542097726708	0.05980474786168416
0.00743934949775359	0.02753504420966611	0.04356723522424424	0.06629606247775259
-0.004306050968442898	0.004688592168471052	0.02914826267453266	0.05050808332849346
-0.001535750551845597	0.01557940066596683	0.0022076341836639	0.006531207083877386
-0.002364277880764641	0.01987901883811339	-0.01597854736828429	-0.03320103638586167
-0.006812028758908278	0.009226407201093552	-0.01002540337805545	-0.06054480676176374
-0.005955249078067846	-0.004121787866448116	-0.01141541393521253	-0.08447222680708731
0.002294868985492904	-0.0100767269821464	-0.007793280716891463	-0.09072933089979221
0.007391172691638931	0.02552398332220692	0.01739264243516683	-0.04049604150926125
0.008113916975827938	0.02372382488084088	0.01409854260462502	-0.003998173997730559
0.0007151763405267872	-0.01175786300814407	-0.02492583978439827	0.01979968326403793
-0.00619340175462746	-0.01324024683926411	-0.01267639468307182	0.1159164095234242
-0.002506080326289744	-0.01073995495878915	-0.02494837796071564	0.1633946050255076
-0.01214313113351355	-0.007609716902320472	-0.02695054775747409	0.0583883524842537
-0.01787143072926299	-0.001246923767639993	-0.01337133474865954	0.04018166158162553
-0.01648391368429895	-0.02265430575507837	-0.008213178894258488	0.0282172311631596
-0.009118029841671255	-0.04395044261550302	-0.02299696553794896	-0.0186536201695436
-0.007808395924677231	-0.04982509859105982	-0.05080730375815939	-0.0516220235192642
-0.001451497240186621	-0.04050606437643569	-0.06838885836875915	-0.0502429928187058
-0.01606785615598076	0.02946108515835586	-0.08209737360777064	-0.03074945191702677
0.001183972451106699	0.02609226640322377	-0.06415117113131409	-0.001198397342701563
0.005443871568613677	0.02078692328956704	-0.01366787750797034	0.05268941221269695
-0.01111834350590961	-0.001174018665776886	0.07403075274572238	0.08943245138934515
-0.008649843006207804	-0.02499915883444462	0.07264541843787137	0.08382009679915992
-0.008083644761067666	-0.03991501825665368	0.0546087875583025	0.05189333373552582
-0.01114881630752237	-0.03706163342913596	0.03880518370002178	0.00296485700228006
0.003877245138015124	-0.0490209625997042	0.01870487030584075	-0.07852984978012785
0.02344229981120453	-0.03166048237484415	0.009597613125488815	-0.1007453380023078
0.04142830133018634	0.01493208440875458	-0.009340899415128948	-0.06425318100677296
0.04338275094284051	0.0871933241666091	-0.003372003444102654	-0.03301851524685548
0.0519156915434745	0.1606359653522554	0.02061395246397817	0.005771366227287984
0.04750803747569371	0.1199489344682922	0.01249370590447246	-0.04226602610625617
0.03021407440834769	0.08378787923910125	-0.006427196829398572	-0.06859968046017727
0.01020778034639204	0.04141900820428187	-0.001284614111710547	-0.07347695043289122
-0.000637127548433356	0.01803865962342797	-0.001556573125203803	-0.02413463899261452
-0.02060454723405134	0.001807191872328371	-0.01676207698900291	-0.03505239225006604
-0.09202969172647817	-0.01204544302973114	-0.02873574587014003	-0.05916296190246184
-0.1114608681287677	-0.02651132613022207	-0.003802247375219715	-0.03152153471866669
-0.05326098184432296	-0.01571614871716143	0.01006948189295651	-0.01619374947152361
-0.04522502722246755	-0.01703191085266814	0.005714308853923452	-0.02008296744175928
-0.04356097900055762	-0.01652369432802895	0.001796341443702464	-0.05819977301785047
-0.00923919594367948	-0.02611264372535491	-0.001155782667156097	-0.05758608998625292
0.003799208352432943	-0.04366200741509187	-0.007248596102640202	-0.004282720729604959
-0.003463139548214863	-0.06083400737317515	0.009047373647622987	-0.006461607955175561
-0.003955222248906919	-0.0672274031533568	0.02099772661925075	-0.01397111320162584
0.0001332047059660852	-0.05116535375030109	0.04529298647044257	0.02086161771672925
0.006777968157107118	-0.003877876532116563	0.01476861035077585	0.1300854388787331
-0.01688166549732636	0.003332290190650814	-0.001398829514122416	0.08697191096032623
-0.03581366161925047	0.00663011829490772	-0.01178708200317218	0.04254348117292613
-0.04783007551919361	-0.01624781661432483	0.008274492201017671	0.03514681946778173
-0.0278215445305883	-0.03058547600020659	0.02004272736868825	0.0196950198061994
-0.01709100284930897	-0.02623686064431734	0.02828633168927026	-0.0055119014598211
-0.01757447773177778	-0.02210897603285319	0.009059949312587048	-0.001410473475450949
-0.004839155467403758	-0.005083209160399088	-0.0006983120886458978	0.02389148010894112
0.01847755319313998	-0.04377273481679486	0.005076684784408366	0.03913153647970154
0.03186553190034244	-0.03929149407983802	-0.002512495461660515	0.07519231643825051
0.03771629980881711	-0.02180920181239502	-0.01893513792141307	0.08835826334650607
0.03219545341344655	-0.007999645703965764	-0.02078079943190413	0.04887798300232843
0.02328216663459644	0.02827777482349283	-0.03284784481210316	-0.01531379774335972
0.02631940066321704	0.08068371750442276	-0.01244186592435827	-0.05961442647140365
0.03672625069775987	0.08923500183472532	0.01179459983407934	-0.03156824372523503
0.0250509264831719	0.01872198518445183	0.02545401412956364	-0.008522714600894269
0.01803868555617617	-0.02569778491797086	0.02893050853011707	-0.01796447038697166
0.03441930728037252	-0.0110644679327391	0.02146223643867368	-0.024347248798927
0.03705989326072332	0.0007046867070901285	-0.007365677241425614	-0.03523637511809181
0.03393155328038094	0.017631752176091	-0.02353943146140074	-0.04334177301509652
0.02683306844303581	0.03213528137623117	-0.01161773815633765	-0.04789015155497941
0.01875475188359109	0.01422239157062813	-0.0201046715419973	-0.05741796222941709
0.008593969936430594	8.75664061922188e-05	-0.02274066416829844	-0.06591649151407848
0.009089332863353838	-0.009192986175284943	-0.01923882214306003	-0.06916839934232451
0.006416601127967685	-0.0219224627759716	-0.007818293647140612	-0.03859718879954003
0.0004673040206801997	-0.02515195253566247	0.006446667739793704	0.04828019498434333
-0.01153547152301786	-0.002909366275432106	-0.0002938189297786837	0.1344776104330373
-0.02766977895906409	-0.007256811905329253	-0.003990989433686394	0.05837417205230705
-0.004516238871300973	0.008062870656826171	-0.003905561338892103	0.01490667124574132
0.02271862381078716	0.03684058341400384	-0.01638021986704477	0.05075292414883756
0.02016671363293525	0.007571196403883159	-0.02123650315752281	0.03201920198395919
0.005028097793817549	-0.00392748035280674	-0.01095709054358185	0.04284382285062485
0.004625435455233523	-0.02662306939269045	0.0258175445197581	0.05752968940837958
0.020177865469852	-0.02311971357404826	0.04684228352710615	0.03804908506083731
0.01581318511867126	-0.02760741958612974	0.01018220291135043	-0.006790225381782588
0.02326018791009834	-0.01974610876986466	-0.004818095277720807	-0.008423041951334132
0.01611799031173937	-0.004210358420457586	-0.002973384869342326	-0.0175483197386691
-0.004701847664888704	-0.003329936289835668	-0.01739261525443553	-0.03919034918954975
-0.01954518641111738	0.0127815521987185	-0.01836675941808751	-0.05722685494621783
-0.02078912084656605	0.008460671300902965	0.007548292676136262	-0.03361053605592144
-0.02029260469076841	-0.005777278979867067	0.002824288495954979	0.01443365796606888
-0.01929183575379663	0.01924766129647344	-0.003727547362700952	0.08254765146716328
-0.00584092451410646	0.05606358605521788	-0.01225482680003782	0.1336897280356865
0.01276970572125472	0.0501823281151573	-0.03023635855742282	0.09707332775576206
0.01845899173150526	0.02195089755569688	0.0001940641362894398	0.06467156233831529
0.04667703777939455	0.007109091183692838	0.02217389080818178	0.03450932130650303
0.04877053111436983	0.01964563722407608	0.02932675845656119	-0.08457814338756529
0.04086441793914587	0.01452604638189177	0.03106633661525429	-0.1189981227803554
0.03857179596541931	0.01116516495187272	0.02350545476918916	-0.09318586991520533
0.03636260465612053	0.02394245240620151	0.02578805381067231	-0.03369630999955191
0.02240390494550035	0.01333280988126594	0.02673357121574578	-0.0402438361871193
0.0009357207713118648	-0.0005234915819425055	0.02728968207404986	-0.03803193255764845
-0.02761745093632731	-0.01791499262342041	0.02268039492866744	-0.0145630275000628
-0.04793094821671495	-0.02515828145085297	0.0091840043819129	-0.01258955927919379
-0.10162749067269	-0.02351297394372613	-0.006391364561823151	-0.01479882596580787
-0.1130897788420021	-0.02358696688527269	-0.02807899602910833	0.02613392138368032
-0.06042489715495961	-0.002668816265695091	-0.020747968210871	0.007371721519452149
-0.04058163147668169	-6.658892072184585e-05	-0.03362828047212398	-0.02233598027277241
-0.0346163779850307	-0.01891677941807032	-0.003530198002077068	-0.01150874360487459
-0.01652901394145392	-0.0005463779191128591	0.0006695747222565652	-0.01038591687505776
-0.01986828392556774	0.0001548776772815146	-0.0170564021103892	-0.04629243126008156
-0.01858354176661064	-0.002917549781100686	-0.0426523988586017	-0.05269332718227942
-0.00434480815344367	0.004754262476988838	-0.04690755838797666	-0.05610281407867307
0.01909313080052709	-0.003582411009023124	-0.0478739678616493	-0.04114926817208143
0.01522604543267645	-0.01529303660402498	-0.02050128567993207	0.03359329476938216
0.003423648101043473	-0.03514181578747573	-0.01062898037925135	0.02167125042289017
0.0004448589709487576	-0.05428236448288111	-0.01559643937616866	-0.01972985574604304
0.008374828987471713	-0.05869999864686758	0.06888135279017273	0.0187942023826453
0.0106762105578918	-0.03546377647063126	0.0843373103626678	0.04016594486807893
0.01746147787360824	0.001558584441339901	0.02945129473678128	0.02955668784586779
0.007839942049047524	0.02295553611362776	-0.004479808436183418	0.0143451255566292
0.0165022147093864	0.02753743309765565	-0.03026832053822455	0.01268693630900514
-0.01164774698545118	0.005162673453704871	-0.040182545926394	-0.005733699152126109
-0.04354039366756448	0.0135303795255017	-0.03268807638739254	-0.007547084438697133
-0.02790947987561385	0.04168970152808324	-0.02828899137395036	0.009055859943786751
-0.02216028176664231	0.04505863148286671	-0.02794394891763262	0.004804106212357389
-0.01996688263795118	0.02601696916572414	0.009145712347647241	-0.01544595294381943
-0.01054831401174442	0.01235613031626504	0.04391809928781342	-0.01012599623648812
0.0049096161624121	0.008327131530244787	0.06175931110208211	0.0019664013689763
0.001622273499905449	-0.008516557063881058	0.04912225474746489	0.05309130200017886
0.009047934478919464	-0.001170773129159939	0.01506137526989957	0.08523869592398788
0.0001971724666938425	0.01246422192246884	-0.0005402130542180802	0.03489583155306367
0.001476022528418786	0.01688504772821779	-0.003441140394099796	0.007807190065624416
0.007289733859934686	0.01278198649766278	0.01153322912479078	-0.02722904415869217
0.003349509669011147	0.002379638904634052	0.01849472876243242	-0.08161559211790344
0.0102923747851107	-0.01884760676246131	0.02152299794707833	-0.03352500518614799
0.01892872072497452	-0.02985600407861131	0.006875044393312344	0.06334674144204024
0.0252094342328569	-0.02105537410013804	-0.004837241958026484	0.04752054777806875
0.0268988421354706	-0.006652652831458361	-0.02332510600730846	0.04144957624102449
0.02367264130212145	0.01988562253033533	-0.02733664903053725	0.04755667799270888
0.01435353956676954	0.0303882705290911	-0.02641091246233024	0.04127172200567857
0.004861708343405952	0.04200524930468146	-0.03303290756484006	0.01985501335840668
0.004940606180412404	0.03441372098300452	-0.03474431043871729	-0.05297368194588817
-0.006102980019430614	0.0152333482586485	-0.007753927511296622	-0.1256824969012802
-0.01913458690470726	-0.001384604728578704	-0.008763783824752054	-0.1431908214951416
-0.03171679556284827	-0.01263359932729071	-0.01031204783825589	0.01395957022000207
-0.01997512079344854	-0.02383703749306897	-0.0200476629117744	0.0122567818341072
-0.02183752522588444	-0.04374402947626845	-0.01387989602434329	-0.0008840372265796811
-0.001295840913426931	-0.0342254813142381	-0.0001583805811748822	-0.003743584178771598
0.0121681568302792	-0.01684232914540613	-0.04551800588330036	-0.004582177415030324
0.01493618402341829	-0.007360409339646856	-0.05279431156522274	-0.01369686970140146
0.01125207835034411	-0.001691827614709776	-0.02634418002578647	-0.008734625574990879
0.01137867905847452	0.008015381730783963	0.0211570263381142	0.01660315784147367
0.01647566351236368	0.01633083239251473	0.04520345682648378	0.02854435338487977
0.02354656914035257	0.007788982645164139	0.07444669609518142	0.04570922415083629
0.02854485439840713	-0.004941621794041416	0.1133651169418413	0.06352567323433427
0.01804014028028841	-0.01180185774758556	0.06550468825733964	0.04166312945359689
0.005975891492077137	-0.01531284351676908	0.01841587570862153	0.01679892609588256
-0.01228848419355268	0.006968418891985723	0.01146349604369666	0.002002895849901243
-0.01675463527684976	0.02387009228595957	0.0203248571565927	-0.0415109965332424
-0.00390934525361831	0.03398002151976546	0.007552883542149278	-0.0009252644874910329
-0.001547397465407302	0.02460583054983961	-0.009144975870797555	0.005413386395155687
0.0002244229600696765	-0.004816589346760197	-0.02325688600640422	-0.01590258462412769
0.01389397192180451	-0.02000628982418572	0.005491847952666427	-0.03887912713146051
0.03533310227447979	-0.003579058466358589	0.03561524854299802	-0.02826642600085456
0.04568421268156839	0.007868337664588259	0.01164087603327952	-0.04737249942206975
0.05010886869538212	-0.005333171349627133	0.0103817691376468	-0.02889346065071695
0.03729731709628123	-0.03276047592214426	0.02177427842504861	-0.003783175168169932
0.03558150664889229	-0.04053401761873147	-0.003738804020755422	0.01206498941131706
0.0294647930768373	-0.04742096044876928	-0.02488816313195592	-0.01109422172399239
0.01517310797856732	-0.05060986623250908	-0.03373543402321077	0.007539388834235021
0.008640728438830153	-0.01662010841304003	-0.02493794603737758	0.07827130665475751
0.005955798562782697	0.01733381805799819	-0.01853278906774879	0.02500910851964653
-0.01454343710239825	0.02534422162973016	-0.03981814957412022	-0.01896585038110818
-0.01621561550327949	0.02248578819352414	-0.03189036050531191	-0.02687318373805485
-0.0150986296916263	0.005320728918082114	-0.02008456300451607	-0.03800297924836406
-0.05926797188891483	-0.001251332786868935	-0.01151596098958187	-0.04797527559212494
-0.0778142539219671	-0.01384573217281032	0.008540850352061966	-0.01304914404069567
-0.05047103980400883	-0.0100992671872847	-0.000598406425546226	-0.001661033484914209
-0.02321910519401924	0.00842161059922367	-0.02120324082887842	0.01196935332946118
-0.02350900221365712	0.01362564816084343	-0.03286213687079993	-0.02125914679640243
-0.04218687940121398	-0.002448168922546637	-0.03269292525281985	-0.04249710296083875
-0.007281886180494258	0.003042784024343835	-0.02019512761482083	-0.0211376366100775
0.01397269477912078	-0.0001001483975276098	-0.03637662741901328	0.02537242251162355
0.01219130073195011	0.001674935021254012	-0.02205884480671273	0.06544512180199624
0.009273546031510592	-0.006215341859722144	0.00282005512835973	0.06385079087818117
0.006151593094179367	-0.007331668410765234	0.01758707057903469	0.04898760588476506
0.006368824668863984	-0.002006480464347459	-0.005617189902821748	0.0887456637331087
-0.00419019405234028	-0.007119032928866046	-0.01559548214542806	0.08427738483191706
-0.01548201118380833	-0.02699350598714802	-0.02511188931028479	0.04566164846143018
-0.005578958020943678	-0.02083542696809976	-0.03523133656554122	0.01861150018192185
-0.03002902888418536	-0.03234614414803783	0.0124839211813714	0.01219497795160768
-0.06407126374365471	-0.04371460373288358	0.008941522572653	-0.003539408672215812
-0.03627612354468859	-0.03643782855233901	-0.0161215954903492	0.0002201846169122634
-0.01198257742641597	-0.01605788252612052	-0.00936592583421972	-0.008221064012691614
0.01748054822867137	0.06253829003350088	0.02756942303617425	-0.01993306855237189
0.03162242672347693	0.09072775338294087	0.03466150798095114	-0.0250889180282072
0.06041998134831653	0.09833771934393759	0.02070997174733722	-0.007265676200801639
0.07008744789314082	0.07752129444833891	0.04428721136612224	0.01338342951779175
0.05462157029675776	0.04486345537700775	0.049526026672793	-0.005163839126970271
0.04682829058669866	0.03195477336135853	0.05537743097029194	-0.03105127877412524
0.009379775524130501	0.001875502380818853	0.03675288953932163	-0.06537231939509643
-0.01900367878407831	-0.02561332987267471	0.009314975110392568	-0.09210568181093011
-0.02067334488182372	-0.03735378883421057	0.005265757498410033	-0.08741724463774196
-0.02773367377343211	-0.03827891490111836	-0.01504566290031821	-0.005830161346321507
-0.03128175315688397	-0.04791131101339435	-0.02228855683848735	0.06678102430492783
-0.02281482478484919	-0.0349419128168585	0.0176580343102353	0.04742491524062268
-0.02554791938402071	-0.01948679272809341	0.00807040391165369	0.1602921318066652
-0.03372023666337953	-0.00982004493755295	0.03044424450931617	0.1391004786664822
-0.02175091205350761	0.009336422248026496	0.05731407932940919	0.03438546349257907
0.0004187061803205982	0.04591799167558371	0.03145978146361992	-0.01206821469856631
0.0234428960439844	0.0725883741694436	0.008949053451791828	-0.04856492492805952
0.01819694607428282	0.07176944109617345	-0.01644304932712356	-0.04164178604494986
0.01065611962800442	0.02461436611892286	-0.009806376359433641	-0.01939855760876361
0.003707730426099242	-0.003153417464315722	-0.008479076716983827	-0.006031531782501158
-0.004020265939293411	-0.01291689946887042	-0.005616018079563309	-0.0204053918296802
-0.004186404453606858	-0.005894648265667173	0.0008255373597153221	-0.0315090698030509
0.0007844505606622913	0.009453770654962579	0.0232739832755865	-0.04666764475914208
0.0005724369796901395	0.03257137600875443	0.01629967366484871	-0.05534821274203259
0.00527664316064693	0.03539662092820325	-0.01199156466300682	-0.06596770988805765
-0.0002964051467179701	0.01882452884124832	-0.02492025662702924	-0.06066279000126067
-0.004668370987729162	0.004257144394342206	-0.01380137081839659	-0.06099891413743968
-8.089385976799832e-05	-0.007035228529480059	-0.03399718181795461	-0.01230954997596958
-0.009426114360582185	-0.01930862064609252	-0.03085545145899112	-0.05734930990793259
-0.009520229913795657	-0.02022001642975693	-0.02293124917702783	-0.08313068971272368
0.008467747289905073	-0.01610138611916864	-0.01657019298428944	-0.05618674088092204
0.007175664695546234	-0.01604771803806106	-0.0001685108107915943	0.003774448175549889
0.009364351918891831	-0.02036211126370712	-0.01054992653616698	0.0003444050853930909
0.00706056531890531	-0.0215131452276535	0.01790532784353499	0.002208536207611997
0.01218339726303672	-0.02520051488847093	0.009747734854110922	0.007616673581674077
0.01835838676130226	-0.01884402609433534	-0.008368332964620131	0.004755248507291395
0.02342403884359751	-0.02291662234273303	-0.002909869344238563	-0.01272472806099541
0.009829162841123286	-0.02135874540457924	-0.005789768419750613	7.997494772109969e-05
0.001743577083447913	-0.02835592882684558	-0.01638523536876552	0.005498723451669341
0.003874208030115154	-0.02860295546570298	0.0002417998406550495	0.01926326441082663
0.03110075094669147	-0.0320236174489763	0.00947009557260574	0.05794487565633025
0.02763233650527084	-0.02705719729601894	0.01804864628531821	0.09539245849369563
0.01105936740571918	-0.03688805415690048	0.01542254113031471	0.05122510658765165
0.02158104575352035	-0.01239797601048179	-0.01437398723672344	0.02405832271129376
0.03843290353491262	0.02231791331431318	-0.04601902909292713	0.01229501692229172
0.03031331583100173	0.04078426045448125	-0.05895926093633318	0.003579709111600252
0.01548604082191505	0.05855460600864362	-0.04257866836561647	0.01459260260199408
-0.02225138591218978	0.0266362222039403	-0.01397235137423268	0.06062729803969397
-0.03874801262981848	0.002126797156065185	-0.00436228310748538	0.03270498362905355
-0.05594068328008973	0.00688874338796343	-0.006494833938558041	0.01521856580732625
-0.04613990642222721	0.01035789444560533	0.004369515483065265	0.03234749238624758
-0.05632883288631006	0.02973374863174004	-0.0170749451945846	-0.01508949719158216
-0.03899685385488325	0.007358903119838353	-0.02582584365862081	-0.1010473325688766
-0.008655660889963106	-0.01479917464536919	-0.02277906859995545	-0.108782294465149
-0.002010948961517648	-0.02636763608909505	0.04729429096258383	-0.0502955182265946
-0.004673419775585555	-0.0448047929167077	0.05142533104379082	0.005500712241910155
-0.001240715712026362	-0.05868543203292543	0.01141159434205496	0.03107129816909962
0.00328798780365531	-0.06222653069885085	-0.01482218179215422	0.01021239428940779
-0.006128530720307891	-0.04671997467578334	-0.014930879589901	0.01650527179591939
-0.003436900337573534	-0.03117872188931893	-0.02393451663238432	0.04510133880307352
-0.003014959246694727	-0.0008034532061163409	-0.04233967256220988	0.04648164781256534
0.00932050261617883	0.06717212384131284	-0.004591430391901491	0.01569103693295936
0.006055515843735686	0.08373275827507792	0.01025157832229106	-0.00920112941983323
0.008219755831044815	0.05781576252266022	0.0556688818185709	0.03435208828279363
0.004267663064324587	0.01438780021841272	0.09391604784809983	0.04820272849968797
0.002128086047619999	-0.02078150667789149	0.08929976402345619	0.0009565769521921379
0.005754286012223772	-0.02819587301807931	0.05171725574069602	-0.006429051599285753
0.003388470083740704	-0.03041948535759438	0.04598097382498791	0.03416960055196574
-0.0001767536326482441	-0.0123548536421954	0.04430140254281947	0.1139450505114184
-0.0009581862300791818	-0.002267264069826973	0.0247999357138502	0.0534823937506162
-0.009418169856924971	0.007634956106873448	0.01895119121049836	-0.005955687420333019
-0.01799088198122987	0.02278408828785974	-0.000535389264062603	-0.01780598187677667
-0.03282967908192022	0.04830682602843631	-0.01927120513984485	-0.05051601331914356
-0.03205035505916877	0.02922463369961111	-0.03453378169700203	-0.04696637556051275
-0.01930641257146067	-0.007173325478963492	-0.02308633080242318	-0.008269423775600427
-0.004764019326579215	-0.01643468285687287	-0.02343770689021791	0.001831124733228854
0.005864883701916977	-0.03305091198381531	-0.01645523398145003	-0.009517251062600804
0.01113353437234562	-0.02668333118413729	-0.02208748308491035	-0.01953256526322504
0.02514033238485179	-0.0160961835806092	-0.01970582450395708	-0.01999510970339217
0.0285131819575635	-0.02268054660061487	-0.01258507004335483	-0.002310907997287231
0.02526398060130778	-0.02578124176959129	-0.002827353040438876	0.03667281950583835
0.03396359920948049	-0.03364291907711105	-0.03361234783621708	0.02306273154691362
0.02638975571670278	-0.01636022854450342	-0.04766044005173188	-0.004103576839409019
0.02444434307858596	0.008024700696464234	-0.05427166925307985	-0.04118022444895118
0.01405008116905742	0.04904426989864035	0.001494197821880699	-0.04122568163781684
-0.005992680804927565	0.03211324875307819	-0.004607029228513496	-0.03734712717501457
-0.03136387162578887	0.03660497112669837	-0.04220984416176167	-0.04623199018650026
-0.04399161035296743	0.03386057129673386	-0.01736928201855482	-0.02603163056337091
-0.03744140378310226	0.03116898681345728	0.03345952332049168	0.008283036660848611
-0.03438727471816599	0.02997267450841114	0.1170196930259601	0.03945097603940595
-0.02204702981568091	0.00878386868771917	0.09448875778355277	0.02416929875620607
0.02348580589065662	0.008604724195427339	0.004940622645173245	0.01435184703529119
0.02941908043432849	-0.0006386095790048054	-0.02896648907184657	0.03781887105266174
0.01688403793788833	0.002717916961385416	-0.0107584648564451	0.01338701206931406
0.0201172830872035	0.004284111014880757	-0.006732348214092666	-0.01561634534556258
0.0246289352410111	0.01636300349555844	-0.02743704275857113	-0.03292843621332608
0.02463582759444454	0.01901998585041283	-0.002300763057867998	-0.04335689211782945
0.01624950695497471	-0.00211876946112542	0.001102116756679575	-0.04471861334108412
0.007643484677069736	-0.009378132089749662	-0.01107607761870874	0.01248231235660462
-0.002343459673895106	-0.006217173424931679	-0.001538498069971442	0.0483935331618339
-0.007272035180415837	-0.003783075776273856	-0.01141435769400213	0.04530449455397466
0.006208621230516261	-0.006826895333554036	-0.01825031750145917	-0.02288535396704697
0.003791684994934087	-0.007462754704031899	-0.01211951281551005	-0.02218219364488081
0.004177732268209069	0.003872050928876861	-0.02551149541932108	0.03236624833247473
0.01071186414213689	-0.005842402067703694	0.01492302114276819	0.06925595432436997
0.009070199612040726	-0.003886354178307561	0.02518693389475524	0.0583524205653272
0.01269710397091716	0.003829954423563766	0.01455012292368078	0.0434403844599355
0.01806471277447984	0.01684805229157725	-0.00167641046046433	0.006242583907773689
0.02569114040601648	0.01598582914050436	-0.01852854305042574	-0.02009926388756689
0.01797883734256789	-0.001920160821222543	-0.04283865573743931	-0.0389699934421173
0.00330933012218572	-0.01798461488733011	-0.04797656689471861	-0.04254189239349385
-0.008232293918531256	-0.02582967039057127	-0.03853449607749845	-0.04459302918037741
-0.00467639576397358	-0.02740851547277801	-0.003206072296775454	-0.03054377113281758
0.002753689960040891	-0.01832435097059906	0.03154853542321666	-0.04301742604640865
-0.01390005703252381	-0.01115309149037339	0.03396148403660471	-0.05837719931948685
-0.02597442830234019	0.008619459526676303	0.03028563126263695	-0.04386920472204044
-0.02158252351213404	0.009367455664960988	-0.009887705458193147	-0.06616222798451911
-0.03310554799317207	0.009611934075338681	0.006264513227523067	-0.07284788896241096
-0.0320353009733348	0.002379276735723715	0.01253310149674449	-0.03980481671360848
-0.02637236778923726	-0.02263236071402069	0.002557004657262264	0.01940885732152725
-0.01058262776506935	-0.01798166600819805	-0.001351282798585086	0.01180094831526541
-0.003760175340264806	-0.03219380399927411	-0.004898630255346171	0.0004708724273560473
-0.00715496010595358	-0.02474795632915284	0.009549085827137697	0.0117120176903982
-0.004442696741234503	-0.00904597806050938	-0.01541025370061336	0.01339653561605202
-0.004597840050998422	0.008451665885050166	-0.04266037985395082	0.02374494875739578
0.0007914732309754746	0.02172760377535466	-0.03171969852366061	0.008200772948709908
-0.002965590343401618	0.02303180477292654	0.01580239444391238	-0.03304658192014893
-0.009535662353160593	0.04065524680228064	0.01074668602337142	-0.0983535508490713
0.00143835807355109	0.05065895411552673	-0.007991852593841973	-0.1826955459862075
-0.01274903461562805	0.0100966783555755	0.01646325091810179	-0.1357805216117683
-0.01502966191695534	-0.03466458660617219	0.05710680368612649	-0.06481585863393061
-0.01860425496761496	-0.05580238965661452	0.07966024402418614	0.102252140780841
-0.008982419832298996	-0.0500177844299709	0.05000821122323333	0.2022058692854781
0.006121867635456398	-0.02642568006973536	0.04694444989816113	0.1682322160059376
0.009511974358546001	-0.009282448332231047	0.01460379769923064	0.09774651404705884
0.009412940517601566	0.02556207095101454	-0.02599260227953634	0.111784503807253
0.01927390586313963	0.05874445248236278	-0.03139954077420534	0.07616559346371876
0.03210229870553975	0.06891839873016524	-0.05095587224305011	0.03005582572566759
0.0250332988155581	0.01940827057757415	-0.03773286514382938	0.03240710593324862
0.02606541154360698	-0.04140426457371853	-0.0339907539973756	0.03216566395816504
0.01394180686051708	-0.06164285491930237	-0.01938595266451991	0.02385366900587565
0.01230745747710287	-0.05405293786446354	-0.01924489789928326	0.04855316085781015
0.017431173149281	-0.01485569972178668	0.006188141652903865	0.05189163689364504
0.01586749798307762	0.02774314881675672	0.03304429520156057	0.04162160592334017
0.02180512739476886	0.09864360461347715	0.05412518534343206	0.01375237617617849
0.01652027344409646	0.05816617330097158	0.06637822513995402	-0.01524063084934693
0.01143965055591242	0.03043141951273909	0.0008201691589153619	-0.07142241772486953
0.01067714384492177	0.01999849899104788	-0.07549708249045663	-0.04516904526737883
0.00914302895604405	0.006664172285227991	-0.05956432632010169	0.003737474799984201
0.01142846769777964	0.003067722250949292	-0.0564488140127548	-0.01206490018738702
0.02083058815029596	0.02332575590738731	-0.05765133466352881	-0.04327938163643936
0.007878071308234964	0.01798716993478976	-0.00577578540855228	-0.04765555393770747
-0.02168258334147217	-0.01515483218028829	0.09838948472000697	-0.02402538841590753
-0.02717903610252851	-0.03090510308671278	0.05606099572257624	0.01620001381664855
-0.01187385651570517	0.002313998227726803	-0.002158941414569222	0.005168977771994676
-0.002482882997171084	0.00985340148516989	-0.02093870145181488	-0.01166060928330601
-0.01312124088897381	-0.02183350994224521	-0.008933156910392539	0.005636637676788075
-0.0341079005976189	-0.03068367753735215	0.01363654341737486	0.02196625118136699
-0.01914982060927963	-0.01806658588898777	0.02686287019138773	0.009105466297362292
-0.02104685470686275	-0.005640400230012682	0.03378287463968894	0.004200919795030962
-0.02537990595294412	-0.02483450150039434	0.01826089680975041	0.008845781185164889
-0.02700078290975014	-0.04126710702413006	-0.02923600676973252	0.01967546329641289
-0.01200275001161434	-0.0380959369095808	-0.03770600939519101	-0.005265461567295151
-0.008859840163564543	-0.04538728326119774	-0.02031132953853445	-0.00241444790062486
-0.01754871491802085	-0.04060834354993463	-0.0001386040720253889	-0.006398302071005452
0.003177318678700513	-0.01001122718028086	0.005815966898921048	-0.01033227862427743
0.004647747694716153	-0.002422969744614409	-0.00495621894043908	-0.02886768951732762
0.007222758266331305	0.005572723423798932	0.0003985739594221675	-0.03903629836901649
0.0001363274848918861	0.002878806542065143	0.02458031142849741	-0.04698299743691751
-0.001248059569932874	0.002126573223042482	0.007075892620717004	-0.0167454483571101
-0.002389585021705788	-0.01341115679108684	0.004458612807827394	-0.01533148635085791
-0.004350016193614946	-0.03505719665667098	-0.010290086968979	-0.02393501674733917
-0.02231961960163364	-0.03098767764069982	-0.01647911557241487	-0.02414735710082049
-0.02420717837806351	0.005353490981910143	0.009390692115958731	-0.01432605934583749
-0.01298969399836148	0.03616570212306645	-0.006288612951351851	-0.007513693070848999
0.01010162224077915	0.05494581594599396	0.01064091498815413	0.01182533998175504
0.01684833181149743	0.06231929433819281	0.0325304190695877	-0.004054530596139152
0.01397788861809627	0.0642880872176932	0.0374041915048996	-0.01921148243004176
0.01575757051562924	0.04754213355220026	-0.003893822867353478	-0.04638543865873123
0.01988569742023284	0.05122815396109759	-0.02138688273375932	0.005508333509210928
0.01895342152781097	0.02916125483197409	-0.02179271099167366	0.03670625324787669
0.01172387953709458	0.007574038641893769	-0.02370213536882618	0.04040525840240217
0.004044722691688098	-0.006943953298016772	-0.01849046127646914	0.04397527912147316
0.00969346816549045	-0.02410589339919346	0.02897608521121347	0.07807375057426329
0.01202297322105342	-0.03251200448781941	0.05462252059352365	0.04967164267219566
0.006188268827333107	-0.02796701065628309	0.0773762653719503	-0.006131271486764454
-0.006292414404024492	-0.01605843118228257	0.02683732089964287	-0.006191463046519617
-0.001439118680251976	-0.01192112601759076	-0.01590563855594131	-0.009640343222998385
-3.239203957052981e-05	-0.03575944751764086	-0.02558538535527018	-0.04092893767749984
0.0008018145330379277	-0.05852414531098516	-0.01344790956956568	-0.05339572919764692
-0.009013761761535866	-0.06955126156868992	-0.02265779190879415	-0.04740976700454103
-0.008100374175701211	-0.06494148404300926	-0.009679554434214376	-0.02209152675623898
-0.006275751073534439	-0.04840549152553576	0.008545513899056622	0.01646166082932312
-0.01984951869106498	-0.02841923120286003	0.01704101973229406	0.01878118184355357
-0.008036448876250504	-0.01461800091573462	-0.01278405985092457	0.01890988838632911
-0.0003079051785539215	0.02368762477030134	-0.01705451260916535	0.06087615733005503
-0.0004205328564465577	0.05433993998092453	-0.02830751659991345	0.01823510302398289
-0.01566126992059533	0.0564649697687179	-0.03945586184786666	-0.04351883205818489
-0.01684333161888702	0.05106204668777389	-0.02085965187368524	-0.05023110257682211
-0.01150423595323304	0.07164127852008328	-0.01905917973129485	-0.06124914254204116
-0.009487318855159101	0.0541852858076262	-0.006072822687969183	-0.0004892903186326115
-0.006902926687343965	0.05223465771244935	0.01467009289078773	0.007745093070129927
0.01423298482043908	0.003969742543045651	-0.003072536770675913	-0.05574006889868625
0.001122825109775699	-0.03373351347595518	-0.03753889071025965	-0.06614833641968478
0.007321578452577246	-0.02983701919769375	-0.03856661398788142	-0.05173904866506408
0.006584617622678268	0.0005258469210525172	-0.02228201666739367	-0.03482539741550542
-0.0224106238701166	0.02557031614615359	-0.02260553741789677	0.004889610341235042
-0.04667452698257003	0.059153282139875	0.003073358392757288	0.02781714731218544
-0.05179658542517	0.03300995214444576	0.01894818674329143	0.09180217970091674
-0.02499166663893054	0.003194848828973963	0.02035359130685714	0.1506508156205655
-0.02219501549493209	0.01440243839140851	0.03236769361517873	0.07807927891577007
-0.005033840433381053	0.01217904460421047	0.01652049750876348	-0.00480801625750431
0.01364086224637357	0.01524331827716246	-0.01163494408178286	-0.02739122388330087
0.02576893681937685	-0.0001442314305907012	-0.04794100980227195	-0.04677887624705773
0.01355924599320846	-0.01991051341949637	-0.03332740161948693	-0.04900748732333515
0.007949763049090598	-0.02683417131037984	0.003763119547047894	0.003163437885687872
0.003391180070738173	-0.03330018047461689	0.03139070702282827	0.06327532005502823
-0.0006166160791575043	-0.03947485229095853	0.04803135945278011	0.06748904652490324
0.03034072055721082	-0.01636671394036682	0.02461414022439528	0.02265378732674779
0.07118019591552259	0.001756778168979769	0.008851306989813202	0.008125347493812732
0.06906799244072505	0.01014401270092907	0.002676176191159092	-0.01028166794828395
0.04653450845769138	-0.005837653295189605	-0.02065846212851307	-0.02794244681337638
0.03182696833763832	-0.02280565592761649	-0.0295418530412584	-0.02337710790417267
0.02466802578114659	-0.04188069661330048	-0.01613005658201789	-0.01079836905932503
0.01195490201536931	-0.0457905725262197	-0.03311465421866828	0.03509393347063154
0.01885346683194078	-0.05004076910907788	0.04895637934220852	0.04040531624595406
0.01627171737463861	-0.03489413488923161	0.06156913532693757	0.04031293069563675
0.01739017368239871	-0.02323105008017287	0.04925353358399903	0.01996311833496836
0.02778531565492471	0.01601273972908655	0.02646147936869126	0.00547158601648947
0.02181504605171144	0.02405369433474719	-0.02892913513551097	-0.006749511434852475
0.007199964764346395	0.0109353934326588	-0.03019200670256647	-0.00746936324125164
0.01491114483129018	0.00591785644676077	-0.04943287061639933	-0.007706154489844587
0.02209790984608746	0.01945232515364066	-0.0258767790961515	-0.006073065291779529
0.02698322316699177	0.02094937192662516	0.0010025560287814	0.009608925564526737
0.01431411842444981	0.01396709728626417	0.02503623690353501	0.0468250393175991
-0.003463112589087493	-0.005445933093688092	0.03280008947449124	0.04455247933466111
-0.008368511084766484	0.003199707423686003	0.04067632165840597	0.0239749896260875
0.009200715426805988	0.02619304938066008	0.02027637939756718	-0.002858921730612132
0.001148860486598445	0.02000710856268655	-0.08023879121715623	-0.03607541503793393
-0.006190631291244563	0.009522718689454365	-0.08154192700034568	-0.0377354607426987
-0.006372367366439137	0.01572252006657934	-0.06793772486090464	-0.0248629770236514
-0.00864430524363792	0.01388690496085051	-0.06427238340136054	-0.009133716234803533
-0.01822035424338697	-0.007105214579124199	-0.02935042354187837	-0.02738610433573657
-0.02694359411280327	-0.02288257734144479	0.08954351266715468	-0.005368669092868506
-0.03378083006661139	-0.0219907953017584	0.08486382953288316	-0.01968175295163862
-0.03523794875679172	-0.02743015225753331	0.06721947853626621	-0.06096393504599391
-0.05571269130077777	-0.04229301147076114	0.05859658429155393	-0.04250282582755227
-0.04202269552323573	-0.05401119121923596	0.07086215882355874	-0.04255643733128402
-0.01556956242152234	-0.01276439257959372	0.07512355330781594	-0.0905888358027067
-0.001713088345253209	0.0006849615804115504	0.04724967583843293	-0.0757457659279495
0.003630556789999973	-0.0010397178477889	0.02407276275575343	-0.07053005339108639
-0.0002958935196502048	0.02775083286557383	0.01142899890323711	-0.04907623716774068
-0.01325642833460138	0.0706993595629051	-0.01170770463905475	-0.05829942726335154
-0.005349401045073759	0.1214332051214289	-0.02523677379339245	-0.06844031290039897
-0.01142085968109574	0.1077593260095294	-0.0265635813534189	-0.05842280103449319
-0.01380066434743313	0.07093289619849899	-0.02982315873160154	-0.01184878579089019
-0.01878760718463108	-0.002001080306970991	-0.02932650981020712	0.09781972275278997
-0.02503342326119126	-0.03597059963895208	-0.03361114753036731	0.172415548213988
-0.02333147747687429	-0.04397691425647899	-0.02236682426296097	0.08743614331158391
-0.02318905837309428	-0.04551562359098612	-0.02249988406705514	0.05751106780159425
-0.03794204915252914	-0.02000687018571436	-0.01543945928013907	0.0597349061366756
-0.03237346977429377	0.006161255567753821	-0.01339071826658579	0.04496796545789943
-0.01283082986763917	0.02705433561107466	-0.03096759582143387	-0.004652356742955515
-0.010141219321404	0.01070198691251128	-0.03099676103399385	-0.04409761040644113
-0.01742557376147663	0.003150924223433403	-0.005198691348231327	-0.004728814947398854
-0.01707118000774339	0.001704741720442516	0.0007179874386439187	0.03216970857213837
-0.01824602584472628	-0.01067504884930842	0.004683894298983115	0.054225801159512
-0.0001511212103795352	-0.02194386235952148	0.02123576406976195	0.1599350881965238
0.01344749493971808	-0.02560902231962654	0.02322475079769944	0.07742646754502049
0.01330872888134572	-0.03101259191296605	0.009619777926221561	0.00883857636927729
0.01719038726514204	-0.02643885159556498	0.004225099554391164	-0.02736385987778241
0.01401748071992205	-0.02681069771058751	0.005365324919370692	-0.03644714653944393
-0.01509887261117582	0.01801264496467416	0.01384883516257819	-0.05048123105943705
-0.01808390212981513	-0.0035166348137279	-0.002920194973948905	-0.0428202842256267
-0.006455209155213372	-0.02092089065647597	-0.01586290270638844	-0.02890071386262201
0.02032740822744384	-0.02083651367940009	-0.03241601295991667	-0.01388203332024104
0.03828152664700493	-0.01811123636588673	-0.03571275639090636	0.01405777055908412
0.03123756747274025	-0.01569894911321769	-0.03221437715850887	0.03922095976174867
0.02577494900834123	-0.006973668513371936	-0.02218639855989156	0.06734077666424698
0.03691719757629341	0.008914488386220314	-0.01353567906798049	0.03486207276933168
0.02625089661597068	-0.01072826880931605	0.01085567893808222	-0.01002180802597999
0.002591363224537074	-0.0216340284781231	-0.005544898959325768	-0.01618758821484564
-0.003874495199335171	-0.01348848290562929	0.008770808992325246	0.0004989900655860461
0.01379785884473287	0.004972965847221076	0.05346894503739905	0.005772286356650874
0.02688956628914237	0.01967097622821602	0.05785508649300105	-0.01236340017837457
0.02760255219255703	0.03306947535563962	0.02013679055492431	-0.07475684321974677
0.02028563845833565	0.01994578555533182	0.01674686613164742	-0.06833275604682011
-0.01821625691358269	-0.009808983782330361	0.01838916431582514	-0.04700366798526957
-0.03930510925834893	-0.02090016885849885	0.008095277003633064	-0.05267062956664042
-0.02471931450914874	-0.01957091166196442	0.009619422202919004	-0.03395359481683272
-0.01928998227891462	-0.01695617545280935	0.005435070651297066	0.02167990370068221
-0.02110080573552221	-0.0116763362162876	0.006751758693606267	0.07054478030290508
-0.01595127218663315	-0.01080747986285737	-0.008016268613801955	0.01564127442993003
-0.01215968494662501	-0.008936939228705204	-0.03472259370629811	-0.04772754604245
0.01381433841379965	0.006268554002408734	-0.05487877824519769	-0.01919597817879171
0.03266855330116731	-0.003552265529930188	-0.08270023893237076	-0.010792159497525
0.04169811411491444	-0.01950678438416129	-0.07114612725500966	-0.001019842402752741
0.04506470316550766	-0.009200245979198248	-0.04552711421418337	-0.003040258119144254
0.04119861343309233	0.002700397686455955	-0.02598807247913419	-0.01229565090277099
0.01905645708868303	0.03101884132274164	0.01515255516888626	-0.01543920833251376
0.005887383983734559	0.03206745350179082	0.02324578429425758	0.004670531934209673
0.005613835028972482	0.01393173201704756	0.04833230634223282	0.03166854979194426
0.03335370658905681	0.03963444036425	0.08035292927720106	0.0353454778862733
0.04957775561968001	0.0514866285809407	0.06311881037819092	0.02707869219175986
0.01693896056056419	0.03574306937431992	0.05122734728707764	0.01302746428894555
-0.005537231944019397	0.02179116543208906	0.04327856876247087	0.01150234633790858
-0.04363860161848435	0.005804946965573627	0.03776381742016106	0.01051366044230242
-0.07600500329691329	-0.002249754778135862	0.02203974964045832	0.004666221626368553
-0.08657723544455342	0.006726080154395695	-0.01014683802189711	0.008932517696334593
-0.04047729665205173	0.01967363768746683	-0.02696877296669898	0.02206000959339412
-0.006182652341975367	0.007472183436729135	-0.02795475552366309	0.01092789903844332
-0.03732346575101513	0.006835276432717833	-0.0336417802327871	-0.03740933060801491
-0.05186762310282536	-0.004506082185876521	-0.03112071707885375	-0.08543606038190292
-0.02755302793820638	-0.03220449759967717	0.0006947180467578207	-0.100421760856055
-0.01897073005902663	-0.05248942002093878	-0.009152031536424195	-0.08499822172974214
-0.009991742284270669	-0.07926090144036979	-0.04987129736460603	-0.09920361733883465
0.002502721611163221	-0.09349522743736052	0.0003573675236306182	-0.0405719345471067
0.01805081745085265	-0.06713791629128654	0.02408545702795245	-0.008790761810585475
0.02739840775708284	-0.01782982281653036	0.03892123567358892	0.07622327834299424
0.04233076431734025	0.02225931449712502	0.05717878510741298	0.09272037601283296
0.04120945588951404	0.03302634110745746	0.03888409397508198	0.07194838349274885
0.03134996714058688	0.04591986284312805	0.01961712929268152	0.03508132959436403
0.02794852620325858	0.08340011820961842	-0.0007869676371676688	0.01604411752297557
0.02054755950782175	0.09256866374874818	0.009529937018984035	0.02477346303224198
0.02890719449534637	0.108183875105688	0.02524644906940154	0.02295501249236773
0.01784404326288621	0.1132279546089856	0.00450401261376264	-0.005512641373377823
0.005630191121291291	0.07052819449130397	-0.01706929056692706	-0.02414795113045025
-0.001072044760775511	0.05102003757983289	-0.1023752745480387	-0.06864732741871903
5.002832180894785e-05	0.01425443896889195	-0.1294509387546728	-0.05673683170409873
-0.002063386097753203	-0.02005055160663624	-0.1002277508194386	-0.01099496615050652
-0.01475111548568468	-0.04287843674136649	-0.07661197675327344	0.07148074779401581
-0.01998443974685686	-0.04886588711753148	-0.05057965100419777	0.1074871151285082
-0.0001306565075288029	-0.04966813428123894	0.08422184902363694	0.04787525038909558
0.01374843094971156	-0.06037973857777385	0.02815362743792194	0.02449403412206917
0.01585982283434635	-0.05704121896198666	-0.02389127807303459	0.03922322380807244
0.01568105088148622	-0.04295086145932271	0.009344316751147184	0.04106359312688743
0.01673343227536251	-0.02590789857764956	0.05288006581975659	0.06780458785382104
0.02499984064098126	0.007354970304972012	0.05286120676975378	0.05826552878054828
0.01360347543860629	0.002085295836346228	0.04238634735036465	0.04447395636365283
0.001491622879024956	-0.02880101981722635	0.06428730397645729	0.01661407182197059
0.009117661686284773	-0.02892389861389616	0.0846210537182064	-0.01771887395913758
0.01075485196929591	-0.01362448798793067	0.05008605739794199	-0.08916523303889758
0.01499167969219163	-0.001175008146318668	0.00369544074481913	-0.1034838224558247
0.007123043324513485	-0.007234822049474671	-0.03054235407989624	-0.07820362143143238
0.003891123472587077	0.000974852402071271	-0.04023423536916912	-0.03434312204940285
0.006474501027901996	-0.005664146095317788	-0.002467851867143279	0.01327216684229115
0.003229851979562593	-0.01233421766343543	-0.03147539094232429	0.03228444165390201
-0.01121427013950774	-0.01685793412501308	-0.02570861005412056	0.02537295819187167
-0.02131182770859117	-0.02661716094181984	-0.03434348166770082	0.00895828279153831
-0.02751788363444378	-0.04441927299015878	-0.02818708454206715	0.003398869765014923
-0.03248090846427316	-0.04687464558471992	0.01094807635362919	0.02399109268396441
-0.02523749659760513	-0.03769451052053113	0.0288124020169777	-0.002804751978388361
-0.01620321823286762	-0.01641466168372745	0.0465374722805227	-0.02099874233878081
-0.01389819903022018	-0.008472188034949604	0.03585287866626805	0.0001167327023908116
-0.009342392798454337	0.008811377252630034	0.005779496767937913	-0.005874431852697884
-0.01121071896036202	0.008929111542738196	-0.001126262191704456	-0.03797241163182054
-0.007980698237354715	-0.003982073273735184	-0.01435657139423268	-0.04647395147695646
-0.00940899980279618	0.00344096869560266	-0.01827163897884905	-0.04756809098400125
-0.001908420941120768	0.02747227407958393	-0.03321882897790993	-0.04209447831939838
-0.01186127381771934	0.03422849330483786	-0.02371755853275902	-0.01542500793716319
-0.02501713912933272	0.01976731971747386	-0.02047503672351679	0.04408638514583456
-0.03155649617874232	-0.003640674970082693	0.003329561188533021	0.05757824986235686
-0.004295415180170574	-0.005447714611994134	-0.004100857362460732	0.04616922078850109
0.002010528251968601	-0.01130196337014206	-0.02838432132085264	-0.005287719219716048
0.01667999443795295	-0.01251065669694656	-0.02203209890679302	-0.07148861553507947
0.02542914704520554	0.01081565443798324	-0.005772791945934479	-0.1014235323688948
0.0338292056830833	0.02644187664613817	0.0003942588190929126	0.01201512462707911
0.02185826539657004	0.03386709509664205	0.003053962641900485	0.04691255921878632
0.01272181609126749	0.0234032345179887	-0.00996883190293768	-0.02435472846974249
0.008601821674006534	0.02361974717283749	-0.0137790979920963	-0.04927634262113016
0.007462630542082677	0.02624441390983401	-0.02146398301142565	-0.01801283013839733
-0.03492366186619791	0.04490946109407653	0.00917606500968874	0.009263117143800898
-0.07980695251965982	0.02987131201832769	0.01911580695251466	0.02328023634954378
-0.05358776317745861	-9.912039891929491e-05	0.03749144744972913	0.05472390273476482
-0.02310847123383019	0.004366516502174199	0.02158226102732448	0.04348954125979909
-0.03302650829181768	0.01385720080895432	0.00689387391460015	0.06723992798923689
-0.03234588869771524	0.01736884444129059	-0.007286842456668351	0.05952212491318102
-0.01926331907228858	0.01996733550445586	-0.009642443641294069	0.02258063121686562
-0.01522747667221964	0.007464662097219799	-0.04214992937573268	0.01731430481261414
0.003356703104850184	-0.03692579698476012	-0.06508579406085972	0.008902133594479571
0.01492173625045326	-0.02270979402517093	-0.0475092496178366	0.0132184650893517
0.02396743076035656	-0.02243305607127536	0.01137712869154611	0.02420454352469574
0.03581604265632856	-0.01093954543531274	0.03974923812610674	0.0132820825068239
0.03415163727074869	0.008002328465302768	0.03397921908083763	0.01021401067801577
0.0302771605047054	0.01164308877301273	0.01681695117740152	0.004881478225037559
0.02643575056276989	0.02557082724076379	0.02010340398904639	-0.02322733166392537
0.02239252490128396	0.01752985066394988	0.01808066928786792	-0.005989583258139528
0.01433244396141779	-0.01198420174652897	0.01724355716502693	0.002932859176967781
0.001419524740006965	-0.006062387866818508	0.01233002946982867	-0.006918659819646632
0.00569275448754368	0.004282934585263091	0.004147719755397275	-0.01660958448526319
0.02070492863561186	0.006680489945253162	-0.02065827377961342	-0.025087073817843
0.01275505709046453	0.009530217525619703	0.009775550335550389	-0.05065609708052533
-0.01851830231380632	0.02062100131375635	-0.01828880142932254	-0.07542432690314883
-0.01271898125154182	0.01451947375635505	-0.006645768507314451	-0.02510017394472329
0.01052429875707467	-0.01659618471393189	-0.0006226600137014009	-0.01250865832034373
0.0005381796573561082	-0.03486498832859329	0.02490795551477189	-0.02569512894134605
0.01598686196073981	-0.03580027216365601	0.02795176757808814	-0.01524982057792702
0.0178553585432278	-0.0389688549416698	0.02092758445087926	-0.0275423300347912
0.0162956745580537	-0.03922074829988396	0.04698726727284171	-0.03922160949891945
0.02158393676672435	-0.003840479196214134	0.02959736831112789	0.01751521672332578
0.00914597742810979	0.04109305808072203	-0.002978034434780067	0.03603829152268946
-0.008945502780384577	0.04547182488613301	-0.01301304750200199	0.01342457872949967
-1.186987809634335e-05	0.002957459686891391	-0.02071540819118772	-0.02748275619663658
0.004370090783917448	-0.01090974726924442	0.007401702135894733	-0.03400991694721492
-0.009974028776722002	-0.01674847798388962	-0.003989542316473936	-0.02798567664314864
-0.0003416926579434829	-0.01868895587250492	0.03049692461359422	-0.007772427515375714
0.003993609410235993	-0.01869577796011705	0.01519598573509133	0.07646640315802108
0.002643375631670174	-0.01847247043580198	-0.01490973698734563	0.08347908317444681
-0.01870178801597305	-0.008698701850364456	-0.02089089096674209	-0.005060793960351623
-0.03961172903588757	-0.01051563466183874	-0.03262790821196215	0.004674474535365771
-0.02567860188525053	-0.01137083754004981	-0.02812309724537607	0.06272570563657952
-0.01189403068845127	-0.002563401960924726	-0.005937548563499377	0.01814885092410783
-0.01471311397317961	-0.007972022121066246	0.00885073390949555	-0.0140762943770639
-0.007969824368551077	-0.005164994526527866	0.004846376861689503	0.01039354922120557
-0.006585595605929187	0.004662392862910674	0.03947503583294613	0.0366374389845496
-0.005839350728328282	-0.004282268458593889	0.06541188584265797	0.004114644646731383
0.002910152799947987	0.00106938753352215	0.03523016007311704	-0.02118234008411147
-0.01556442797611143	-0.0006947085491199232	0.004183998349322026	-0.07100571650394971
-0.01851641373429368	0.003314276949954475	-0.01087911790274078	-0.1020478224123474
-0.01406808480706517	-0.008334240570220766	-0.01087269816026228	-0.06974167278027739
0.005650284581004607	-0.002912739628175502	0.01331914255620134	-0.02232922476461145
0.02700703858404753	-0.01111004404644875	0.005490289171586816	-0.01434901122816471
0.02367170752260606	-0.005096008407061685	-0.05268566852862887	-0.01768309258717351
0.03217931049405678	0.00785898987965521	-0.05828847715832097	-0.01770489560245631
0.03611224427847656	-0.007587176796153599	0.01036295351588894	-0.008000231415140271
0.02862598865470816	-0.01225717108076251	0.006862160513668134	-0.004324561044904482
0.01646192489251428	-0.004587772928449424	-0.04492910827508234	0.02211981360463507
0.01054592314802587	0.001817859051716106	-0.05162322788950013	0.03785672286848941
-0.007163796537347703	0.02302426602482976	-0.05281616193690816	0.03630267113345868
-0.006914716772854835	0.02275048311681076	-0.02530021653662482	0.02996335284397448
0.006028718341168346	0.04646931451275074	0.03931668327168714	0.03080439612638092
0.01137957423186185	0.054650032808175	0.09253007213290643	0.03866813702370694
0.01079616505452105	0.05004596736117575	0.05078377728832036	0.0342514638262332
0.002557585697028179	0.03041707255866143	0.03946380309582379	0.02333730965233542
0.00410011080843307	0.0008005403594195417	-0.02623482970024946	-0.03069824817660077
0.00300275586776058	-0.01839040869812777	-0.03512741042145191	-0.0007086501612331775
-0.001328952101305194	-0.02232143199092724	-0.005542751760417327	0.03067023178084692
0.007511266340032241	0.01225572774790916	0.01071775421642908	0.0469764480432498
0.01617589680287229	0.06087847597165758	0.01859421431131989	0.04523864195163396
0.0231803030766295	0.05949283976477403	0.02593767826363546	0.01621982446616298
0.01032944206430962	-0.0002988624146484573	0.0268954181043821	0.02170597678685288
-0.01183854177772514	-0.01919870984379606	-0.0377297212364806	0.004575617076774959
-0.002235187668557914	0.0141969461994463	-0.06654203343305357	0.004676540327371317
-0.002918833525185584	0.01220015424058022	-0.04856994960831661	-0.01404431183976356
-0.01609704850353829	-0.01602640196924569	-0.03589470042024077	-0.01828344090998451
-0.02556763169540756	-0.03296186166809396	-0.01579589118798461	-0.01842151132795656
-0.02183271549872585	-0.03637101380499577	0.03601625969943636	-0.001392099262445923
-0.02592893432983735	-0.02712093055537874	0.0366875503130524	0.009479525857733741
-0.03312185849296234	-0.0242580049791331	0.0198638953269954	-0.00480505015530391
-0.03063136105741057	-0.02282522985647074	-0.001337181192657683	-0.02631841894136091
0.01028316927464266	-0.02778172119194093	-0.01361210565115558	-0.02939883343581861
0.01793067099523605	-0.03613966416061176	-0.04302541737740317	-0.03180408989754031
0.01345800151908891	-0.02636691453630546	-0.0318956293567949	-0.01783669017411586
0.01202241934264406	0.02145484105100669	-0.007219057288281137	-0.006948498158429591
0.01005758587870497	0.007600327580079476	-0.0006485353988677702	0.03252624523632699
0.0002410655569096749	-0.02127410454214615	0.00597764216959101	0.02945594879632969
0.0002313231230764155	-0.0139785644578307	-0.006503225959999059	0.008130123022120052
-0.01241629876693791	0.008377138332648113	-0.02398935669121069	0.04636104676523833
-0.03098434755068228	0.01030754630543353	-0.04039529977143499	0.04675884603475413
-0.03253563364100368	-0.01796650334001826	-0.04406558636425328	-0.06099981433552011
-0.02814334850347504	-0.01866156404731188	-0.00936720671049562	-0.06782558701800123
-0.0221846064871408	0.008354557970874442	0.03674055216091674	0.005425743641121186
-0.00983863236206955	0.03657900516277632	0.0634445618431471	0.07502010967883312
-0.004237310308768549	0.01085733381161238	0.06224581473483396	0.03102560391727054
-0.01040869340570473	-0.007579957127241691	0.03435677717000762	0.001702486836296269
-0.01709398425508496	-0.009066100048060112	0.01571340178276406	0.02061858720991398
-0.0007059411704382349	-0.004486123765217885	0.00362868617697465	0.003756352621762543
0.01296424119196059	0.006249366439177133	-0.01521820093587582	0.005580625785273711
0.02504742935205266	-0.001180878554828319	-0.03823235253576866	-0.03215090072204162
0.02864575753570991	-0.004739886005308044	0.0009011800606615375	0.01377338946367514
0.02155967921103075	-0.002937287148902018	0.01717899105057467	0.04458331929552146
0.02086391455082243	0.01622632048046362	0.002479616999401794	-0.02990788084492919
0.02196797217680375	0.00893100920373224	-0.0266835024418332	-0.050446575583763
0.03412568036684329	0.005314973824388195	-0.02656617033118426	-0.0343919980074529
0.0472021867761968	0.008006686783919165	-0.02241221326642147	-0.02275547886712241
0.02163852262644398	0.0008230429288190981	-0.03515069566717342	-0.04121707869283376
0.005870170435321965	0.003475629515536662	-0.03471514862720259	-0.02305302156166486
-0.004015065094786193	0.01124407595261427	-0.01108760105877125	-0.000141285447036189
0.01671339755025387	0.004928279695633511	0.05244802063933401	0.05337426541237335
-0.01060589593911903	-0.01094199735305674	0.03877883671480827	0.03483520892533979
-0.02301935872924006	-0.02097205594100993	0.03376205451331797	0.02400547126278977
-0.02740991796339597	-0.03177553970243546	0.0318467466453666	0.08042742440072656
-0.03629745345809084	-0.03766184443725495	0.007872677611872252	0.06924004183035619
-0.03591099826743554	-0.07072869253358484	-0.037951264954798	0.03247333141387413
-0.02530482334135116	-0.07248312386190213	-0.04951185826075661	-0.001787398762971016
-0.0124627947949381	-0.07043085622394939	-0.0290890130613192	-0.07423385536755313
-0.02741911534235689	-0.06274366400263141	-0.03038889149929725	-0.1486834038171899
-0.02067921143727304	-0.01235010662266596	-0.02021777671436176	-0.1239777157814415
0.005488457049876026	0.05880922501450545	0.03580075018974213	-0.07566932502227873
0.02234207493598543	0.09204037968861564	0.02625570212501399	-0.03295872458073448
0.02380744644434815	0.103747500779875	0.02204641959809386	-0.0147748587944427
0.006769116021479721	0.0734210481139374	0.0003530124550178119	-0.04317076168907795
0.001647671836664332	0.01884013648820198	-0.03105802563101961	-0.05922102594812428
0.005218328487051982	-0.003733663498417914	-0.01530994851121495	-0.0519215656746083
0.001374445225704896	-0.01333823517101465	0.03152824073936875	-0.04686322160516797
0.002202519631449158	-0.01972211161156363	0.07765896963307009	-0.03738678060585351
-0.02410331239571555	-0.01613438795703723	0.1037296567579381	-0.02478580281240067
-0.02823068623852622	-0.01213204751004268	0.09189980481659391	0.01592213768143651
-0.02758576154253669	0.008371528653877842	0.08400359522066647	0.03545876705292494
-0.01747462934179168	0.02070988504899454	0.0793404913272569	0.02247219178158792
-0.02218213282969341	0.01588960405540448	0.02581947976189265	0.02123046130007803
0.006120461968536327	0.04413580230623664	-0.0001133545245339605	0.03873117234061494
0.002160381543179226	0.0271137790680183	-0.03762403262382497	0.06348790729293856
-0.01910857769442805	0.01546669375284784	-0.03872713676878327	0.07992087010254662
-0.01221415703924938	0.02504731057657839	-0.04775541273459209	0.06631940870131169
-0.002058172736147753	0.03920873017435061	-0.03108692527083095	0.05027930340941172
0.01579654316759324	0.05718460029570573	-0.02039510082725843	0.01995890752800632
0.01520242301022112	0.03764439199045565	-0.005537743318407961	-0.002540207193326644
0.0201870032191042	0.01859121506848881	0.009110928370586783	0.0009501789408900015
0.01698802517691652	-8.308350900986471e-05	-0.01147130220330001	0.005725183118932816
0.001636042587845002	-0.01116484467418694	-0.01619682920310349	0.01102603502506216
-0.0060601740921044	-0.01703113815571303	-0.009424953535363661	0.003777598504504779
0.004873035544759253	-0.02743879923453859	-0.0211785730099633	-0.005674729298375009
0.02860133608209324	-0.02694502544420238	-0.02221917874435549	-0.02254242743255472
0.02337971174098251	-0.01583774410736595	-0.01226524561999731	-0.04051710097500606
0.0256460346796905	-0.01171893699567778	-0.01974844541732996	-0.006106644034577741
0.02493274253210863	-0.008013526008598898	-0.03461170175183903	0.05096742745714813
0.02639883660871656	-0.01180142690986649	-0.04917081926758849	0.05479338829655389
0.03091934752913445	-0.01823046649713954	-0.02980512682223605	0.08152062103336832
0.0306697743650634	-0.0124720096774663	0.02250955750766872	0.09409942801196798
0.01923610978073402	-0.008384703186370206	0.0215552860204443	0.04914327964249526
0.0045751440953717	-0.01080997931554097	0.003474769044850974	-0.04793257391914596
0.004749205140993083	-0.01848954755510863	0.006304089150397549	-0.0733543235919711
0.006083330059468992	0.002886128628393834	0.01976352683738358	-0.06561880261076358
0.003911247717658722	0.0388866574194667	0.006658368682842503	-0.01690811845136876
-0.004950520230643053	0.03835836811468885	0.008305410950831923	-0.01105801100815434
-0.001739799654986468	0.02909018923524263	-0.006760871468271998	-0.0001268404880948958
0.01075233310432718	0.0197681520657714	-0.01559784699665287	0.04430941497580032
0.00321984804661843	0.01512201599557072	-0.0510850033555247	0.05745544392526934
0.005619530147749008	0.0009145165312733842	-0.06175560403761586	0.04194894603598334
0.002154500614807366	-0.02624274738125134	-0.03113730081861742	0.02225162729440183
-0.003940729718875775	-0.03659033442624522	-0.01858145591462529	0.02025844162063239
